CH_1,CH_2,CH_3,CH_4,CH_5,CH_6,CH_7,CH_8,CH_9,CH_10,CH_11,CH_12,CH_13,CH_14,CH_15,CH_16,CH_17,CH_18,CH_19,CH_20,CH_21,CH_22,CH_23,CH_24,CH_25,CH_26,CH_27,CH_28,CH_29,CH_30,CH_31,CH_32,CH_33,CH_34,CH_35,CH_36,CH_37,CH_38,CH_39,CH_40,CH_41,CH_42,CH_43,CH_44,CH_45,CH_46,CH_47,CH_48,CH_49,CH_50,CH_51,CH_52,CH_53,CH_54,CH_55,CH_56,CH_57,CH_58,CH_59,CH_60,CH_61,CH_62,CH_63,CH_64,CH_65,CH_66,CH_67,CH_68,CH_69,CH_70,CH_71,CH_72,CH_73,CH_74,CH_75,CH_76,CH_77,CH_78,CH_79,CH_80,CH_81,CH_82,CH_83,CH_84,CH_85,CH_86,CH_87,CH_88,CH_89,CH_90,CH_91,CH_92,CH_93,CH_94,CH_95,CH_96,CH_97,CH_98,CH_99,CH_100,CH_101,CH_102,CH_103,CH_104,CH_105,CH_106,CH_107,CH_108,CH_109,CH_110,CH_111,CH_112,CH_113,CH_114,CH_115,CH_116,CH_117,CH_118,CH_119,CH_120,CH_121,CH_122,CH_123,CH_124,CH_125,CH_126,CH_127,CH_128,CH_129,CH_130,CH_131,CH_132,CH_133,CH_134,CH_135,CH_136,CH_137,CH_138,CH_139,CH_140,CH_141,CH_142,CH_143,CH_144,CH_145,CH_146,CH_147,CH_148,CH_149,CH_150
-0.019815729493695283,0.014880375768073804,-0.17407436561400777,-0.04667691981922911,0.066965349820515,-0.008425752962974514,0.08536655177475683,0.030136549230612167,0.2264543160749498,0.3530554413661421,0.29433559903851797,0.24696536381395595,0.3878990680886505,0.3834837687766407,0.2873003051984347,0.5869943037861305,0.5227627054407634,0.49778358776929027,0.5823247856155765,0.4571398359700568,0.4975334573969247,0.6016603448861937,0.42557245671278443,0.3663893698680263,0.803913868678906,0.38312931709632614,0.6866075386557028,0.9599841198321907,0.7818242349490261,0.555910148251316,0.6823186979765619,0.7189122248491983,0.47612468158580235,0.41565661524333414,0.8491018290952388,0.938020960666694,0.6353245656111706,0.997120179176227,0.9695396055482963,0.8645669106604054,1.04991441068133,1.2172795727320311,0.9911449984038054,0.8006408634863204,1.2205390781412147,1.3644205048348652,1.1334250790920415,1.3339414702089227,1.066985572392006,1.1858755740263027,0.9180890632992529,1.2051401018593448,0.9730353595039783,1.54169100641319,1.1226498811493706,1.3091139523000768,0.9792869631895882,0.9845899126763303,0.9436952440502865,1.171277090961421,1.471343335334659,1.1571270651689571,1.3500543786307082,0.963254482171119,1.3531842936678216,1.0113420892473375,1.2348363167621748,0.7464443414462358,1.2731186284185496,1.5202320929844382,1.2007104021930377,0.9436591874360284,1.3125490269302658,1.4072761888439784,1.461032620534106,1.1863037233749198,1.0348838447169322,1.4294689997655374,1.074978822472002,1.240004942785383,1.449073210809947,0.6684321174420351,1.1179375479073388,1.5226660309024322,1.1130576741865732,1.1687196679103486,1.1025082495613139,1.140541983924183,1.423883474261592,0.9121141131832253,1.3769796001649006,1.1070395240828081,1.0956068209951484,1.3486154199580191,0.9683601748516149,1.142677217672742,1.5190761058619342,1.5623128825131298,1.038204136306846,0.7365357953474961,1.147783224868089,1.134820465960897,0.8173884175456336,0.8221457183310037,1.296756165009469,1.3032928668335158,1.0329351298097686,1.194688363592551,0.7593778952873533,1.0448231558988068,0.9110721746261501,0.8741957657871119,1.1413552791129695,0.5602041840238643,0.8151495215674998,0.8351530112763342,1.059030090503803,1.0178106465298051,0.6954646077663154,0.8072821410177236,0.5555178172612525,0.6385960841217041,0.6080767018574756,0.5255757511988658,0.463486543492083,0.65882689260395,0.686751848331252,0.948673327908395,0.8093598001622977,0.6091684938668818,0.44352918235568173,0.516115412572012,0.5346017665666196,0.30086959225087995,0.2734369098349394,0.5398345676266268,0.38378481818100374,0.2619045371405537,0.3772650383302412,0.45558899759645893,0.27500115585537627,-0.008609313967748888,0.15260801885223158,0.049284412787602705,0.22729743008753012,-0.24930292400644688,0.13927905003664254,0.20528938611025466,0.02874032308192022,-0.13205654633009337
0.10987254576327475,0.1739944892751628,-0.08410549465770319,0.38225907126784187,-0.09357487489856466,0.10310375445237868,0.22738949914657114,0.17379773339112173,0.4836283583203367,0.2507661016936983,0.27172582692469205,0.2595737700617662,0.23780369244813843,0.6382932342776995,0.42092455155338543,0.4237161257088443,0.7091789806446216,0.4055590893932711,0.618349792049434,0.34541999887396235,0.41180465315494036,0.41443887160450504,0.7216230053004259,0.6710864356121602,0.7511261937336539,0.5644880628985334,0.7317727610696747,0.9038280933630863,0.6945473532390976,0.564571478427152,0.2715392996790599,0.8621036013372583,0.4925432039844313,0.7935319092421519,1.1354259981836534,0.9352074393360053,0.879505937029979,1.1743257184669842,0.9375710727234435,0.9469235495975185,0.9372421148357191,1.1661913851071404,0.8136702274735256,0.7630199492073679,1.3253705384353829,1.160573659373899,1.3436355097655734,1.6573767016867798,0.9477125714298619,1.0604525679229257,1.1944797526241455,1.3819478249329875,1.1192177654047657,1.119172212165215,0.922856341215798,1.1949363990869197,0.7951716810984157,1.0535010185447327,1.2359145328504875,1.3267621189517003,1.6853051054879888,1.1850007367807276,1.4455289599345598,1.1526070198795426,1.1723069969978073,1.1476538844824182,1.3595588731382362,1.0061372651037417,1.727916685697318,1.211879794936601,1.3230955031097136,1.001269101882439,1.297810235041838,1.703450512677617,1.435291127757984,1.1877279562123744,0.9300247435613307,0.94361332826252,1.1500362036016556,1.2186665265866479,1.6498762633804407,0.8741564081310296,1.3225279556780227,1.5147224932949062,1.3581521801439596,1.1591456947282763,1.5785052393752546,1.2529439020997095,1.0391041790461897,1.2900117703673644,1.4993910356145437,1.3565671006068887,1.2703018369163206,1.2955500022236923,0.9155110186555332,1.2803602240185936,1.1823981863987165,1.3644703400929894,1.1276747909696792,0.8929519384104746,1.0856640913927307,1.1412967936249796,0.9039765676836797,1.0050305683249152,1.0230513027565142,1.5585135912964019,1.0851602276606551,1.1843912796335536,0.9640118400580707,1.2789981503679835,0.6587059271633925,0.810319008435239,1.1122949662122483,0.5343649269152043,0.6892705520795612,0.7043027279838084,1.0432558020904765,0.6761214142779723,0.6515979830858318,0.5988566962066263,0.38699814466650545,0.43345557540799473,0.8626864375143318,0.4650678808155116,0.5557003990211853,0.8494200421307054,0.5757449508872274,0.5269997773000873,0.5658552123352498,0.8191747983974865,0.3611796017154008,0.09849745824521616,0.49850652709946736,0.26521785498326106,0.7410404812283597,0.3458237766735551,0.3539642134729791,0.40275383739211795,-0.025743181936092846,0.36452034973345215,0.5806647170646909,0.2082478575414779,0.05901428249005722,0.4694791658817875,0.008931122980858422,-0.10260603174391829,-0.15078735604409013,-0.010263432476273898,0.1749603252173381,-0.0971867285227709
0.04335179913290828,0.2976206955822426,-0.15686663247834057,0.13419381196457963,0.1671910646635615,0.20792482169974227,0.2248859365133162,0.011172488941569636,0.2848480431418249,0.44495906694008025,0.3301803411886858,0.40787183598969745,0.36144202180070134,0.4865915590895377,0.5926539727307635,0.4445879184890347,0.5021626471645753,0.5370500814842881,0.48304312711692543,0.28344250536684634,0.725192653772166,0.6877604590418461,0.7365255844998958,0.5419215779624829,0.6457207038104018,0.7856377345013459,0.4736188295015982,0.9196038142266244,0.5837922526185816,0.6362079027107634,0.904139276697914,0.9430288671923288,0.782099780040049,0.5876918270637272,0.8198278786907919,0.6858591029760956,0.9200870680389259,0.9173735854827783,1.1303655125616745,0.9130067543670436,0.8381185197321082,1.1999796117799169,0.7197557181115948,1.0123440499635943,1.3706133671549632,1.3952330817105736,0.8253311001528294,1.1163897650223031,0.982192886288679,1.1465523037171816,1.0629357555728405,1.179846202355533,1.0283175132064781,1.0837770461021998,1.056081319659749,1.3186072460017242,1.0273483918166093,1.2501683922245557,0.9355556036320007,1.076871400993357,1.3954479385609735,1.3309787762796073,1.4987777510667433,1.035462718863371,1.5039309866792747,1.3941368215571324,1.2516727302727888,1.2441586602775134,1.3994888278278133,1.5041803892402816,1.3992260001118708,1.2639903969828379,1.305917952938918,1.6058656143652854,1.4270508012532848,1.1605107449349796,1.0507159723314645,1.3014094858340735,1.2137436729015392,1.0367846161580545,1.2633986834084077,1.1532175060600507,1.1465224115294947,1.5712373546263951,1.1799943661526435,1.2137031471592592,1.354885461564526,1.0845105473278707,1.2440900545504423,1.0811514741824633,1.288624416267256,1.0915097285406872,0.8943435302530024,1.1878175546501548,1.047687029019652,1.2990374588240605,1.4632176422684684,1.3191890180678245,1.3539819075799575,1.0070810632375675,0.8496162328857848,0.7690513317106054,1.1675579141806371,1.2072238178352934,0.8993946814137559,1.1076730611643733,1.171731327857668,0.9094657648783699,0.8712944012186685,1.0989288544522773,1.0336170480259605,0.8839587197809851,1.0703862549307526,0.6437682041674231,0.4263795251177863,0.8206148890503967,1.0328826940284168,0.6609619389858934,0.7819449700130072,0.9066474089755472,0.3445331843491103,0.8583842256482033,0.7470405828264804,0.41915636791668925,0.6424277769945719,0.5365591560224456,0.7140987564173263,0.5181946431193676,0.4386874264758888,0.45552555862052946,0.3859960738771926,0.6045250376257869,0.405379997313108,0.3440740597283796,0.15254690398857199,0.5271682794410137,0.14960783602434466,0.2580531916388779,0.15735187662357858,0.06310836999368666,0.22240187503912848,0.3243691228597728,0.3060106140577474,0.24349971413253485,0.1664455015332289,0.386429909409732,0.15363347192723503,0.09701863243544431,0.0727266102877499,-0.37073654518792215
-0.038929020552095635,0.12587809060190838,0.3015593939140419,-0.020485811956851813,-0.03004368518583042,0.6168184932645125,0.23015130828752542,0.018152876253978184,0.29804236083713337,0.4005975703020226,0.09939582238482828,0.31277146021232316,0.5079653628002286,0.6282813530940721,0.8520559256935469,0.4274789035630749,0.47743255886170144,0.4843508482182983,0.6119265049033357,0.22471572536375933,0.5695082929456161,0.7224886532805335,0.5332758550846683,0.8346363833132592,0.6380267428763654,0.3485060655540396,0.6823066158293642,0.8749529561343898,0.7725890577747264,0.8054903833629323,0.5959567227141966,0.6434140931182376,0.49966417718594436,0.669453353737671,0.8638811721031108,0.9133971096809381,0.866832127010841,0.5945052055624263,1.0989518611474691,0.700029364486492,0.6206753858950744,1.3148917284329276,0.9655936179148635,0.9016957465677523,1.153947741374171,1.4347285790261581,1.24172339238509,1.2390211448956943,1.0742329986028278,1.1309422637962752,1.1371013346933376,0.9841219479078628,1.1045669971020955,1.3931165254017253,0.8065942827615744,1.1993944789519633,1.017882064507012,1.1134071903729428,1.1428357147468915,1.284064872625552,1.5403942579145518,1.5302021874093583,1.4138517898800558,1.175334085260647,0.9201023560497049,1.091697820625219,1.2764712564324372,0.8587847304668703,1.3636989871050882,1.2563286330809977,1.196942554305655,0.7853475005100383,1.1372351396754048,1.3929060978485641,1.4468225009707891,1.1620494188438433,1.1397419917299225,0.9053036236727536,0.9071535279758347,1.0060540613546525,1.3692235730172388,1.0523142131187821,1.1944873154554343,1.5167400069602595,1.2043406778540962,0.9964782997248398,1.153627524617971,1.0293940230552763,1.320661092967882,1.2384287386030806,1.477952292048069,1.0284525877817474,1.1541483961480168,1.3277969583884255,1.4222646598492488,1.4741385238222282,1.2389986562504611,1.4475894365142543,1.2661920028669322,1.049198094338414,1.395197410030036,1.155000592282566,1.0017905999087708,1.129131883325098,0.9316097493519176,1.1232381635340951,1.045649741661168,1.0633004945676776,0.9629793751845307,1.3648439822627179,0.841350037748784,0.6758272657440371,1.0293856317654253,0.5322965536552104,0.5958227541060097,0.8450014901222448,0.6926238877522072,0.7340281698833533,0.3906985024447518,0.6911364064961666,0.43002799129211927,0.5238481062092328,0.6135160279048465,0.4937170424622936,0.5040003658899327,0.4290725846958789,0.6915623378374427,0.6436022911498873,0.7220309322224174,0.3839567701490101,0.29859964631562463,0.579748927132973,0.6819806300957063,0.27730120543307474,0.58997641032537,0.42470199618810295,0.511739222278824,0.5673254937765031,0.357781812141902,0.21730407239397193,0.308733278737384,0.3904924732847064,0.10859960640083167,0.010594264104678924,0.39228287989514166,0.21162996647152124,0.2856975611023411,-0.044606608787982435,-0.24398602530192354,-0.17068997998875038
0.10946070368445227,-0.09109228731412423,0.11697930389805229,0.45247014898283555,0.01061069212851265,0.24602944328263762,0.10457351887738317,0.41883767832700836,0.15957843408511752,0.5281461844648274,0.23172120971197718,0.16020325954186568,0.21731506430460037,0.36771442640746765,0.45436156871017686,0.6050055815779656,0.5312699231669058,0.5972730477060524,0.4154053894496927,0.6677752722328374,0.9594879719041254,0.7525157530007678,0.6749438784054838,0.3495160046145112,1.0856611476112452,0.6107984136884167,0.9878513043291341,0.6270197757350846,0.9063471432350054,0.8222455345997784,0.9030547850557489,0.9003490339858129,0.4453252570590197,0.5851115333841252,1.0315533499441238,1.2732264403011362,1.000163393200229,0.9579613765929722,0.7938244340583046,0.8862633978690535,0.9094186832193323,1.1371353516194442,0.5906568988474973,1.0533944763126273,0.9646959955453818,1.0909910759295784,1.17733577204698,0.9342917164377919,0.9879055133761289,1.376581473379676,1.119416439825651,1.3430574781172366,1.1665530128486654,1.38815252438817,0.8285120786240486,1.365005449563953,0.7324212130310153,1.3527186607667492,1.1194383968833068,1.3834677081351965,1.5279605901620457,1.5327579282579846,1.3748842920749458,1.522439495523935,1.491942337677531,1.389081566528315,1.389924407864183,1.0310284253943698,1.6769436351946174,1.2247728642474698,1.2798004057545997,0.9628891073828808,1.233385470199313,1.3284844768535624,1.4270403762637938,1.00196360574737,1.1737688349797002,0.9793627303987428,1.0354756804892877,1.022308873792148,1.4473100251178872,1.0055736849435706,1.1652103814188255,1.0451880495546322,1.256520635464496,1.2713887114022757,1.5366328667305458,1.1601716494961072,1.1386585550479817,0.7497475798515381,1.4243027927607128,1.1676333478598127,0.9635956188089448,1.2558781814202054,1.1963732531581568,1.4417186741342882,1.4853267777283272,1.224030358818064,1.2779818838246904,0.95751843738079,1.2236642547397953,1.0536939464478055,1.0862098133937894,1.3396327967896533,0.7507625362030816,1.0899292467462136,0.9912294653155626,1.0833130713167234,0.8576349501693326,0.8307100575326445,0.8696500315458903,0.8959647468007765,1.069407059160605,0.641345181080039,0.7822418328598836,0.5912818771478686,0.6839941119173686,0.7655273507902554,1.0309997257184076,0.44686082930539295,0.6827283513939255,0.10060320690444263,0.555287380722195,0.7832855584443279,0.5508306007503136,0.6831078243833436,0.6049178895785561,0.49459365605929495,0.24148484168460763,0.3649697183836186,0.5336868275720295,0.6944427947751723,0.36764430211495686,0.04343348379671852,0.33117717794015655,0.3125051749499691,-0.13126926115602486,-0.020373812470394825,0.21087741175030328,0.31910625279016114,0.2824869581904876,0.19472261384020223,0.5745511620673944,0.07072361877394945,0.019036782741558345,-0.44563539072366354,0.05756144339075046,0.26384572766265874,0.2078206385669363,-0.19564649752397995
0.26461545457068864,-0.0077721652267581515,0.18731436358779505,0.30069634943721746,0.23753267517547835,-0.04229457988210486,0.06910032356705201,0.1878372905599772,0.5732243303999939,0.5751181250925804,0.48903346016697624,0.3942405418757148,0.2947585091950928,0.6964665067703366,0.4500528505834028,0.4453938323980971,0.4564339265533154,0.4935531883909338,0.6355640000798121,0.539285440450232,0.5106156460817175,0.44751931554989505,0.5012893472974049,0.7086817706693067,0.9770800142994852,0.5816871117451916,0.9752391274378112,1.0644798033274605,0.784958867939382,0.505212622689199,0.7202187514349273,0.5913067627853141,0.8277809769510974,0.870266207953353,1.1798766914549368,0.8850734231718189,0.6536754766734572,0.9620431244032093,1.1639376384606677,0.7804379475482339,0.9327570106904511,1.0518255608289122,0.8201888629505237,1.0940444999619987,1.1311958338601107,1.2977507877459449,1.572888948202544,1.2764203498869449,1.1344686678189606,1.184670482463946,1.0820627746480789,1.5093030631110924,1.0237386999059646,1.328277916231182,0.7908384694668569,1.2874507225745302,1.1121625451694492,1.2693055381939529,1.2084280690531513,1.141383229512066,1.7459950190707691,1.5900109054127725,1.533121956000067,1.1420190731233624,1.043154943240465,1.1650516277825256,1.1576027191239855,1.110362355395732,1.3230568902597122,1.332649638584621,1.2744729397791346,1.0178582763891015,1.234340225401133,1.410742641829408,1.5701797956432353,1.1836725118666134,1.362934666534772,0.8645927450741612,1.3191405562785807,1.4673614947166294,1.6754761261453217,1.1220701998994713,1.2541373208430628,1.4114837931227173,1.1349265636907027,1.4191284225185985,1.1138201886653485,0.8982147912907649,1.131263058284964,1.081869426804662,1.2165128122265467,1.0255210283213787,0.7771789949625796,1.3457413708008479,1.0625166561250414,1.6095054484792604,1.3579988665144562,1.033216411020319,1.1203162106749747,0.9257500037972278,1.209248913933533,1.0750286333849464,0.9718109432939842,1.14418028870136,0.8753340887112974,1.2990259692018824,1.0703081247037842,1.1426333125600259,1.1452706725031918,1.0529110533157924,0.833401436866888,0.7593775867339185,0.9884720122137258,0.8489778755455992,1.0028235398347105,0.6207945057032038,0.8501459881168592,0.5103063961168655,0.834907637094285,0.7323728870401625,0.3586013453876842,0.5854060741790723,0.9228030222120397,0.31249741894540195,0.41354283946346987,0.4698791913317909,0.5232744330114977,0.48180812683055896,0.14373177963502204,0.3316205821463875,0.29976633614751447,0.3960739264290359,0.22810819806509927,0.24289798452765582,0.2291904917013114,0.383707871813696,0.012574550770732967,-0.07265131224629137,-0.09638885399251235,0.2056273129237651,-0.10013399796859437,0.04121912935161168,-0.006207775111856828,0.28834443721868924,0.15858895292801878,0.38523225410254247,0.19752813993583535,0.010558067203522242,-0.18301054981952883,-0.14178672645848872
0.22486402377872644,0.1809026645918938,0.2978076718992686,0.3410850240659507,0.28063873066781214,0.2862767665702012,0.43628298814904776,0.1568674541254113,0.2884665316757729,0.6090529119775996,0.4659002389557026,0.4647867159750499,0.34730265568888835,0.196791194134653,0.057031713232097436,0.4545947071124941,0.3614020765788747,0.5751548723685261,0.42591275738301226,0.6293806622628721,0.7251090419765756,0.5748271505986409,0.7100570782354162,0.7994333625357067,1.0317360872943127,0.7808474774483701,0.8217791655862158,0.9693219305537452,0.9710058045925023,0.6844686948663611,0.6117932437404231,0.8671082550724422,0.8288225994397256,0.7556892354452484,1.0425285360031813,1.032597589901768,0.6404682564556743,0.8342396044871714,0.7326330307134705,0.7029935640348365,0.8594891003502396,1.2131202534595247,1.0790145712506949,0.7631356671007696,1.0613163031830006,1.1105444085170828,1.3652640863271672,1.48556663903241,0.8052838398300316,1.421330167069545,0.9956099255951565,1.066523202456758,1.1456342895027922,1.1700817129915309,0.8449799804156556,1.5491319694564596,0.6454875327544044,1.4672323121730821,1.1973029448437567,1.1696454146880773,1.5315766877739292,1.5267114196100273,1.3799664887917216,1.1117841470724368,1.0269834394988493,1.0363167239716597,1.151984801017094,0.8923928482175798,1.4985939206461163,1.2406822796967207,1.0868430532256164,1.1232336381643426,1.4016043933270144,1.4947604970164996,1.5253756120931576,1.114185721948816,1.1601031718032746,1.0330762449355386,0.9970259329166592,1.1801946013273197,1.4402214558603486,1.1057841869800227,1.0551587767416775,1.7182690933147668,1.0861433015009454,0.8956736738161879,1.3126010025875186,1.145029121190472,1.0849133106274753,1.2228417761014225,1.1377638384397033,1.1444630388806136,1.0751197337527323,1.4406766395340096,1.1102114160077454,1.393391840700779,1.0366957278599596,1.2124183176803773,1.1692769681762432,0.9206463529763678,1.1087812911284471,1.1906110760316886,1.2427804250369257,1.1660484563711673,0.9383415437276623,0.9686249771640414,1.2604738633557488,0.9759023394477044,1.1586362216379307,1.0199854348377266,1.0319920839977033,1.0581243201929318,1.0097496310730756,0.6636103055043648,0.6235867247619602,0.6364807662773806,0.8886538758013537,0.9086012330327152,0.8312204215501994,0.5044170859747911,0.6019712043468561,0.7302283283258297,0.41041752469031184,0.4127973870433866,0.5795356436771256,0.5807085411011706,0.538741281127071,0.5106060322257326,0.4513746822667873,0.11097266162044939,0.3772818839400057,0.31042838341784934,0.3625183761316564,-0.1165089810101207,0.22126543734799128,0.3449672458543537,0.17841395105504285,0.13756547727793694,0.2554299593024058,0.09288023449648102,0.24637724798587912,0.15115476844540826,0.14942976892177837,0.10952969058645742,-0.009133518890457215,0.0648887902217056,-0.2628392008215883,-0.06209547608130894,-0.2516432417200056,-0.2210735124441361
-0.008981057740144197,0.05739515193667469,0.24659200446416768,0.3963361717153555,0.31567074776472215,0.336705650248322,0.5639971305695153,0.029217470177841598,0.5702474824358763,0.41919031186051303,0.1374402580208368,0.5757143796583996,0.37818468207744577,0.6507157402942518,0.32719402226186933,0.5413625465405483,0.5143733544399,0.67062692707366,0.7061123675226822,0.6879831676791801,0.7604042907780685,0.48956293949642377,0.7147036868094284,0.9757509532968065,0.9175585645842486,0.7737230654707571,1.0092113659800583,0.9255106910641225,1.015198842193103,0.5750497005520756,0.6945217667790076,0.7101318362071533,0.4524729791616383,0.7470962475560536,1.0010300354964436,0.8805319008156977,0.6929897672836868,1.2146242976572272,1.2134667086216864,0.42901157938056084,0.7447478633855771,1.3904648589547244,0.9239634752128909,1.0292002814204853,1.0916379938551446,1.192926343896654,1.0317770922711667,1.24952759008317,0.7710885681016546,0.9377721720103978,0.5166731177235843,1.3477254858501537,1.0905428939504305,1.041272013084498,1.084858939520193,1.373966842880689,0.8977066898414292,1.2950078461490009,1.6037860650145879,1.4557920184062254,1.281021144063919,1.5338357771263436,1.6415036870085546,1.2742240387852646,0.8560979182153812,1.3000992824352726,1.3115663953942005,1.0923475963254023,1.627429733163722,1.305357919389796,1.3544009371947978,1.0425847885886745,1.3586629305844422,1.5029872547941683,1.3528121975239982,0.871121701596167,1.0815127095479327,1.1888740404462674,1.2698838854493308,1.2291038491929784,1.254737544459164,1.373006882427919,1.3078283928862544,1.2393091876726534,1.0802973472595612,1.1393219971011879,1.283613168372806,1.255306979788128,1.3494850066250996,0.9134844895684933,1.0681731320320935,0.9780918711150819,1.1653180751012435,1.0096362539313362,1.3653455758681132,1.0765734334024295,1.3592710826544838,1.3521295972444844,1.0110711366797314,0.7212264431750566,1.1902938506018044,0.8614024094599666,0.9060716638636045,1.1426294618703186,0.7422955277027381,1.3684618375596522,0.9372991484565716,0.9485326663311947,0.6942289104144561,0.9029083484162973,1.1214635147489904,0.930305648970205,0.807736190441776,0.8021321315498248,0.5130307331918237,0.8523105066007098,0.6044882511339189,0.65672028267349,0.6144479386724407,0.7412055720265459,0.5612506670902563,0.5914106651645146,0.5877479933529957,0.6318204470777685,0.5859848537739564,0.728396948210589,0.4214718229496054,0.3948738934004064,0.6376453955815454,0.6333287357625205,0.44521038173469585,0.3413617377229935,0.32677335953604925,0.12684433066487277,0.42171373022416037,0.1950081100262535,0.355406893678037,0.23236350347405618,0.22992795856380233,0.1532351419461162,0.16703934923522684,0.3592241132675239,0.03642241228514244,-0.1905679581194732,0.04696459894789759,0.11509256896609295,0.03177660556048812,0.04119184068810647,0.03371547181650936,-0.03721453661214315
-0.07946723923628138,-0.018696291261731446,0.15201899842437572,0.338469458494852,0.40864983429859036,0.24356043413810788,0.20963822531362147,0.41901915722688177,0.7057492500777237,0.43214064614998643,0.19729074608154049,0.3279818096271589,0.45450962674150935,0.4259003452021487,0.3175934628447936,0.6096860982270038,0.5715295174026452,0.49428620473470153,0.6055215766270912,0.6347507984615797,0.682620095771566,0.42231528104178745,0.6794545375780445,0.5556674268931066,0.9872341386955028,0.8046416346811572,0.9437398238370108,1.2094212514844669,0.6781717469565871,0.8503437108880747,0.7883646362609964,0.7971808366132788,0.7653682861831502,0.8630395530818439,0.867528724587755,0.6636435127834033,0.9274787239853653,0.9790312259766756,1.1024673276355288,0.8674903675320474,0.7964291279203497,1.1657922825858913,0.8152296169059701,0.9208175389892261,1.117433267646285,1.4234388192929321,1.3155198220533695,1.052760021515763,0.9466270606201308,1.3920534043476873,1.0039623538715015,1.3649072256643666,1.343847843422483,1.261498238246152,1.0381459278984335,1.3630509827317012,1.0789406904015675,1.0039328506443725,1.0449882859603918,1.1563791826676129,1.4040660462085341,1.3141104658157121,1.5273799521366938,1.1046665112838874,1.1997411720399365,1.089777624075742,1.0979718587539955,1.0380783371068267,1.3724112990905377,1.6050764181830783,1.3336287239659024,1.0875437278002495,1.099162929766087,1.1802305668972461,1.3284739050631944,1.3361652525531749,0.983081916357855,0.9446343947834056,1.2374774657025853,1.1667184972114484,1.487229836705501,1.138924240049962,1.30867348169336,1.2543675329336819,1.2594207040678975,1.0864769404524453,1.3988542908933803,1.1652724940948846,1.3092069008286022,0.9756130832910539,1.3004602404217565,0.8925373194512519,0.8527540575567003,1.2014114096155886,1.1977781378110408,1.1279220712754563,1.185372555535688,1.2218912668248474,0.8781880271440664,0.9199606102316739,1.0117432067005114,0.7219482131820071,0.9236191733928374,1.0421202487516528,0.7972764040546413,1.2631644503982487,1.1793587250598958,1.1160066227224017,1.10956631574951,0.9719929878592815,1.0275635514833084,0.6892110134391034,1.0358722033650822,0.4765582945430184,0.9611044495949803,0.6210864749907743,0.9046454788744777,0.6786966267213559,0.5104944972670419,0.7359050828976215,0.512890602971767,0.5118991219969138,0.6393771121761258,0.4138577159622778,0.556989525786902,0.5027946954746099,0.27264125489598157,0.5316006408397417,0.027662849291207714,0.5635054149874019,0.24213827094441392,0.24783995472794473,0.20734937539430287,0.21696987620586022,0.49081207844194413,0.3059957122041618,0.22655529784170755,0.24216958598939248,-0.2006909937045248,0.15387542922113562,-0.04103663933289475,-0.04850243789423181,0.11217598628704196,-0.20468430772936733,-0.054101062157468856,0.021674084390361937,-0.22057267497043892,0.3912077365785192,-0.2612763469707098,-0.09862670639613955
0.03060946111486465,0.11503271005578561,-0.04287481802771562,0.1814782876549856,0.17070215457669363,0.3328612181571142,0.2971974010050983,0.1561078282996887,0.5079354242637963,0.4161915769477849,0.07207511118571974,0.22995915376928724,0.3495074490747676,0.2027153304824516,0.45582418784595813,0.5426034379751478,0.45235307831298033,0.7279172334958066,0.564375911878982,0.707041161364096,0.5329885234240731,0.23561012144731613,0.8024269062728919,0.6175920256412719,0.7336816881206792,0.6738968554822689,0.67094872217377,0.8641254015646352,0.8019894675436401,0.5288778029010872,0.5468868883306419,0.9261129617512132,0.3880874124217671,0.5803529943300456,1.280259681343295,0.8095889264720072,0.9116164426616441,1.028487782230261,0.9931114678177384,0.6611433464579085,0.7313592835630113,1.1413797656472346,0.9878349543994089,1.241792445386,1.245528597176749,1.1216553993213747,1.2110381975599143,1.3696006548917776,0.8481734059797317,1.3228454310703484,0.9308601659998085,1.018603223350854,1.2888382518944077,1.158774370336004,1.008213262735126,1.2521479132097935,1.1416338553960537,1.2801715047494806,1.1744478519471047,1.0718316644215122,1.316215380757423,1.6661474332889363,1.4416449697207032,1.1262417731460028,1.2428502843707412,0.980052436639917,1.215358137649007,0.8890642600417511,1.1994076175745851,1.3280928376376964,1.3526844217225522,1.0171787217267678,1.3969077981783213,1.4896026019151327,1.39104329922113,0.9712384467211359,0.7315565082859843,1.2564123656738881,1.41438236753782,0.9655918993298572,1.5347959815558312,1.0559936674502481,1.2978317045718608,1.310192856819651,1.12176818066749,0.9554924709809185,1.32100629805169,1.2594720736324716,1.258726109881089,0.9478860960428928,1.5015777114590636,1.1563222442177654,1.092651421951758,1.0869956000973688,0.983148913851387,1.1736451396195464,1.137517429519628,1.082616330948892,1.2118804415351898,0.9779325170055209,0.9683563682604805,0.9002533799013679,0.7665947143649255,1.2641002101892511,0.8631189285460268,1.1793056141605438,0.9211848285707656,1.0314748121142288,0.8316498738038884,1.1189613531924953,0.7334613431067254,0.91140899652613,1.072610954036842,0.47981750418744706,0.6594100638796884,0.7345815389882262,0.5875916049033639,0.5950657691364649,0.7192370234776776,0.42743919967995136,0.7161727877717556,0.6533921252244721,0.7199648359492378,0.21215749197546668,0.3155150942309528,0.3985900178256361,0.6724720772961472,0.3503251270698793,0.40184778675790855,0.07111769744132329,0.16222232551226615,0.2676846747696058,0.4621777752101808,0.31171697250846475,0.42702832889192394,-0.006625747555852907,0.24423101630072291,-0.1509306566491785,0.2038611515663465,0.27181699698163103,-0.02066291729669384,0.05033591548887523,0.13299072560676606,-0.01822602091943485,0.0476736890139742,0.08009392389464082,-0.2279819821990725,-0.1347045774649355,-0.06285355021819332,-0.19098608246675836
0.14404056290233708,0.17378128318884112,0.2130714608853868,0.10226448259223259,0.31166907731550164,0.47842830637113765,0.22811983198249028,0.3274713655808507,0.3795520623579054,0.4285905625304745,0.32157881090897766,0.48856637395720126,0.36544326514658393,0.40950833696084044,0.5675977173833708,0.5124646663057455,0.5030815503047216,0.6698009860235888,0.6376685044314594,0.5681742852511222,0.8162574005668187,0.8290465720617044,0.742933075850478,0.6555931418670623,0.935107985647753,0.45562671162063695,0.7813538636913266,1.07957923858994,0.7491246987505553,0.7107008465052447,0.5902683760063518,0.8293595079278406,0.7982145558788136,0.8085459975617679,0.8546302425988099,1.040843258824323,0.8288522687162319,1.1578042626972662,1.0248142732098502,0.7936499039432133,0.916388115659398,1.1984899066219776,1.269412491774493,0.7711764840965912,1.1679979719354978,1.0916623079117984,1.236280971027773,1.3710681874931085,1.181558010918789,1.09669500249788,1.0730154016115292,1.3447767814636964,1.400786773486241,1.2092980849902277,1.1339258015123,1.2139133544805636,1.0624861431619381,1.2052332115650781,1.026532223859566,1.2030151093193802,1.5534635231735376,1.483404830068668,1.4600782594910955,1.1267640055264727,1.1963252042243373,1.2165066947010459,1.5475136008609927,1.2654533426641044,1.4933899595733524,1.6423925728693902,1.435213369549861,1.3786527657370244,1.1373836918690292,1.690306386847495,1.4835044374225943,1.1953115177672857,0.7411040289385238,1.0346734406693796,1.2147561883673268,1.2451249183368533,1.1718660551007805,0.8901781466581002,1.3258524647464003,1.6485142367137804,1.101627168356649,1.3940397665765176,1.316507634630067,1.2370183309041543,1.1555202520101884,0.883054239951573,1.3262428614809207,0.917502930727748,1.0159430116961556,1.0977759745504392,0.9229129629942121,1.0900936488309199,1.0623889018383255,1.0304571377529208,0.9632138802599578,0.6816972754464065,0.8383469602063723,1.1673163982722898,0.8427914108012886,1.0302942214913284,0.7737857756624178,1.1739960051770504,1.2654818345633272,1.0287246346351933,0.9829554281828029,1.0767631837417284,0.9638514354938801,0.7652961095568172,1.1241772115777462,0.5756692644973355,0.6546147304004992,0.5123585711759031,0.7881534083391688,0.4957598251124694,0.5955199647478502,0.6387784410819524,0.6040706310296181,0.41628453005386923,0.771405509018745,0.6172172500519821,0.6513247054942632,0.6737729123398168,0.7433203555511643,0.3039428571194359,0.2762750636486306,0.5288528564168772,0.48426629616566114,0.30838641522277893,0.2295529504543855,0.20883040760816907,0.10324378958575194,-0.040271142720180675,0.16851982507591873,0.022788261609586274,-0.295224626516925,-0.08745908490251206,0.12973998967769207,-0.10623467457749601,0.026671827023894687,0.013197315203209914,-0.005497233759737173,0.04045308037514603,0.005028033831514581,-0.0527817039106893,-0.31203380013394566,0.09992529794172864
-0.19718703562264736,0.2523515420029264,0.3075617369846275,0.4080847435840073,0.4666624831568603,-0.04924144786589546,0.24783309131911083,0.5022175361225599,0.49165926478959443,0.5112360778955942,0.22978957663111263,0.49086997153735373,0.022482414629367342,0.31679800154568766,0.22936747594506762,0.7794329674323879,0.6897053999605998,0.7911538607233988,0.5403654200056665,0.5492569366777211,0.8077508311063403,0.844855453034642,0.6754137819711573,0.6581240608458548,0.8191585541376598,0.47837141598795374,1.0193774795174821,1.0847108839075714,0.9147972395756773,0.5687535590556936,0.8517836622563905,0.8881925056296179,0.9523473727956808,0.8420587178898815,1.0566552740113975,0.6464008331717888,0.996022159300705,1.0560058778089325,0.943400215056859,0.7832390973396187,0.6998304829248259,1.519462392385077,0.8716763786420467,1.190190253452557,1.3085304761907746,1.272971904090618,1.311187922686433,1.3394066481237492,0.8372855233438383,1.2549863042550038,0.7074967578084935,1.277222736036168,1.3133389874067591,1.4003399396980414,0.7589380649113677,1.5470210012732273,1.2984159545683647,1.5893818575581107,1.1932220601402923,1.1366336696994772,1.4576030507391566,1.3709818015721267,1.2916105783869827,0.9559859308819076,1.0874400099641985,1.2766855347225272,1.1008912358292007,0.8829797102980249,1.3921120975165346,1.1834124800049521,1.4957673852207667,1.050947460571554,1.3228941342187432,1.421108357458483,1.0165179011970018,1.4450480267836645,1.0913413395780778,0.7250920302171893,1.2425507428849198,1.1085128526256127,1.5374081063156777,0.9682145583626659,1.1796392769156387,1.2945055439090893,1.40212125501919,1.1446709568345665,1.4529307320143536,1.1043404822541099,1.411685684296401,1.1013126546938283,1.2205083617991017,0.8241002459526173,1.042722546040351,1.127269487051414,1.313240794712111,1.0485378239510699,1.2952129823677796,1.0948123684505453,0.8659021429266469,1.020302856335198,1.1821198401737614,0.6928047121583465,0.8841982288169687,0.9980132158923353,0.9914407301041723,0.7208508856186275,1.0182275420013613,1.195765190623544,0.9961801745105238,0.9531087907657904,0.6692292848036251,0.6477607503720979,0.9207440201170821,0.776343414942224,0.6338421890352228,0.740715999661027,0.7794107795840988,0.7554494041713624,0.7440218744808329,0.6069116118056116,0.43507736128352886,0.4261920162272925,0.7739830616734757,0.4228608444865809,0.3745093219599499,0.7976316252159652,0.5848817301764003,0.3257240908322958,0.5752471891630584,0.04926424208266436,0.4999601048770549,0.18901929740198506,0.09606995131762022,0.1687356677121531,0.5748412906697243,0.21837219815858733,0.30233795585116235,0.2777068859349517,0.08737483808712901,0.06714252785769893,-0.01164405367325215,0.05489357538736872,-0.19227448556209054,0.03511346688325595,-0.07524842242580973,0.0029988385076546303,-0.05512109965975952,-0.010618704399729312,-0.23345876571574842,-0.26643269438502587
0.13245811892130283,0.06675004811430729,0.4656540427014124,0.14861669686668014,0.42076460577119246,0.288151766177313,0.4504575272961974,0.30387756869876287,0.3923094366500297,0.3628305559280093,0.23658039791295774,0.19731190538993218,0.626513502158185,0.7834563616930894,0.3712744047938039,0.5356722122424206,0.5243048896108443,0.3123415268294343,0.7205670220273489,1.215010954719923,0.6603701033361106,0.6043263110725063,0.8377613888567343,0.7187058092582496,1.0024305443289352,0.9174404120480473,1.1045528635910276,1.159354975418042,1.0187501953046159,0.7462694952840261,0.6661633287049231,1.0390070839123182,0.5706592308437626,0.5618904962094642,0.9554612164446485,0.9276075292205977,0.9338916144512034,1.2525843109417856,1.2083486648291455,0.9946779611066866,0.8557439436417633,1.2863255241162306,0.5897722248225372,1.2621935066236487,1.1805492132291873,1.2982789137844948,1.2955404438322602,1.7615593628080142,1.294393510584352,1.3191133443578305,1.0122682512824563,1.424887799961166,1.1731626966619912,1.5624041322311846,1.2438523022073036,1.2332005637537142,1.3480312423085283,1.269836655804038,1.258422362498377,1.5534533637818868,1.6698608165070774,1.2420571275394923,1.3162935184356925,1.2964871811722452,1.2522047424145937,1.1278311949023856,1.1396879530471016,1.066550117783741,1.3886879008692234,1.3005116603732723,1.1818911735367228,1.0819240967489394,1.044543554868793,1.6247942284427772,1.4268863607916935,1.1155152201122909,0.8728745445849557,1.085867790751384,1.2018377977579175,0.9464747818089271,1.680343599466906,1.0073048064194494,0.9786931783354438,1.0410416339125028,0.8286383511179405,1.024967785710161,1.4093064513897433,1.1837693303461416,1.387790554132195,1.0741787581894997,1.4161142653952334,0.8684142915304229,0.8958803324637168,1.1339783491328341,1.2657539386835959,1.2507089030546714,1.136459806341041,0.8658618369598885,0.879749949231238,0.8304548553583933,0.9698331165116733,0.9165582251770743,0.6589739489991184,1.0858938396930775,0.8346166001665715,1.0570754426944413,0.9104486640938602,1.1607875599389805,1.0128208267096939,0.9730202917871104,0.8593693483929582,0.5401334481138512,0.8978447763660445,0.6645091631238851,0.4748425065650078,0.8183150195366794,0.6962609893802065,0.668826423879851,0.7172664245588722,0.4927753878752357,0.588258890666823,0.7324734898354213,0.7821575607132213,0.4792587876171497,0.5236300452408189,0.5365518490752551,0.6167352774357715,0.38947361055321134,0.2161520782225786,0.38636173150385167,0.19573067572870162,0.38998354334826546,0.22043683913845652,0.1489375718769959,0.09974440249473204,0.011518753805269372,-0.10835733349586449,0.10169158863789121,0.23727403950100745,-0.13160558830167382,0.09481419437224389,-0.1351259083211377,0.1400883605671199,0.043690018667013004,0.013886808910209096,-0.5506297397741895,-0.2743302323965215,-0.1129586980605384,-0.2976901184121215,-0.3014599788693673
-0.007918616152847363,0.19904121155505156,0.4096698125222636,0.33938085680450286,0.2186778433031929,0.33908380577443337,0.4073459563600119,0.40049212736736894,0.48107799442711385,0.3968989920440941,0.4327536579292344,0.33021118864658794,0.35646269248661444,0.5446247786297091,0.5392163603558574,0.6689578821122705,0.6300400555357889,0.6007646870565744,0.7551287822734433,0.8535023733014306,0.6075163890803551,0.6434885177280862,0.6225388110836303,0.6943853443280082,0.8890032945700719,0.8085485975029949,1.0420007785337209,1.1061883344243075,1.1229848316438138,0.816652318978178,0.7108271998697555,0.8599756983525493,0.7611551011050298,0.9063622195456532,0.8972739682227353,0.9098342427619769,1.014856374199233,1.1896271360000232,1.1124155653041978,0.7368905670382827,0.5650467330277169,1.3445544830597085,0.8238729688678518,1.3021781368154128,1.2638733607495642,1.5100552537392198,1.4354239916083822,1.6825791608138123,1.323884680230587,1.2288308317539498,0.8656347608064228,1.2183349944491162,1.117421874210384,1.5248191381620222,0.9405464577579192,1.3917924777352284,1.1079157857286837,1.3291776513059097,1.1925600039666573,1.4038149275101257,1.4913130505110512,1.5090309105726465,1.5077416723838113,1.1782400738391552,1.4102854550184094,1.3960124197175974,1.4567700316694843,0.95853165867971,1.4444046903234526,1.159645076343593,1.2948268775989633,1.1214719330123444,1.1109935787235508,1.304392165773477,1.6195882533375432,1.3387951609463715,1.044182869537337,1.1925503361264416,0.8973574416107301,1.3643493404438596,1.277298924247199,1.064190671798318,1.3705542029512738,1.493666810014634,1.0641801051393447,1.1927579136784225,1.015209797608112,1.4390631483117873,1.2022887883817523,0.8212846777627101,1.1395120713186628,1.0539792381550674,1.0970872397202214,1.143733230550786,0.9872207757681595,1.3457557604622805,1.1563364417398438,1.01652213323162,1.1207816854895565,0.7175063255544373,1.1443692330309245,1.0253793584471516,0.7099992515334614,1.0162797602453693,0.9508236436166487,1.112713144294033,1.0091031396020542,1.2236088593861218,0.7405568689021345,0.7899907649661633,1.0134047906521064,0.8610832688957396,0.8975489404884355,0.2958484882628015,0.4730064214635225,0.6217713568395623,0.6768541068012413,0.6649540353378244,0.5640897897878834,0.6523905350970947,0.9024973930116378,0.2479564883226978,0.6214575995681884,0.34513657781819906,0.6133180015284054,0.3471158973443351,0.18616457467136827,0.08905273804550506,0.33664361949970295,0.17665432643953866,0.026418299524041566,0.1662619178283965,0.35460545489074985,0.2868617697232162,0.02590267742620933,0.012151832094944248,0.096926727775494,-0.052608157469971925,-0.15940049340091716,-0.11838928746523375,-0.2655794353487425,-0.3337095125920802,-0.010533049455134925,-0.1015231925532164,0.012287039329789487,-0.10207836634164169,-0.4132587479901684,-0.32247991176003477,-0.4056842337979989,-0.1666848712685457
0.08279944774916265,0.3301693383209244,0.14515517218347138,0.397537117371758,0.3907211233607526,0.6997570127434015,0.29513817857640334,0.39960146047094874,0.6646374418626119,0.6136338288493074,0.0473800271142259,0.4905248227741,0.3803826242318218,0.5668791239708565,0.5806812093472578,0.42902825689151514,0.6785631268020523,0.5906386603335333,0.8865633764929757,1.0010884152897292,0.8281868684529308,0.46976198574844763,0.7786334594999087,0.5803575985848556,0.8050583440071778,0.6011026383282355,1.1436431210441356,1.0629536822637875,0.8860738832754959,0.7646023525854415,0.5445595329617124,0.9012226541195946,0.66781780249765,1.023559115211271,1.1715029671439259,0.8693068326071721,1.0038680471972126,1.3258321999659701,1.1517976818278035,0.8917489722316388,1.0066254422811185,1.0291176785464748,0.8199006836331026,1.4598019239948663,1.2292811656114786,1.069731491879545,1.1120834822009447,1.4609830326872224,1.0959174297118968,1.2775455532489495,0.7991852918562357,1.2146639388202118,1.0318205554132829,1.2376289203381627,1.3287599744257284,1.446816754503752,1.251062665365191,1.1860513644543718,1.326371799661386,1.510606545093616,1.3999448076136276,1.5400485499594925,1.229686086506179,0.9421789347652765,1.205468534914142,1.0940560435142652,1.3110681282135639,0.9091656385157976,1.3682280745844584,1.297072207480569,1.2673979229435939,1.208421025822396,1.0184567561075766,1.308210423479122,1.2654848111570132,1.163454006063108,0.9410516716984566,1.2085336502876367,1.286454655434595,0.9365211302597276,1.2473312760136428,1.0232959944920443,1.1978368926494585,1.313258038471018,1.4722522895551622,0.8158211347987214,1.2045858885780731,0.8636917958864363,1.1393309004705865,0.9259409922279743,1.4790007858205623,1.0461078037640512,0.9346083137428001,1.0070678839644767,0.9736189837237769,1.1746894870798237,1.140519470460136,0.9314145589076857,0.7064045299472864,0.9042260461509501,1.0721117664858577,0.8264663879284653,0.8724712777364949,1.0693991241031395,0.8384275152177736,0.7421895459917394,1.0330319884660395,0.63242997918188,0.6741026142569497,0.6160417780638151,1.036380572795083,1.0056716862419677,0.6410623200197415,0.5582908737086861,0.7100826696614269,0.6497331540127124,0.7255202949163876,0.6822673033351445,0.4632969217740443,0.4993383172048534,0.4145187295520878,0.38404175374502064,0.49738309475098663,0.27200017568300716,0.2747704457602489,0.5819682738575733,0.2560161890074495,0.17893759485065447,-0.07672550963730973,0.19356605414265884,0.23177361477536618,0.24128555021609252,0.23894914781964446,0.16134350693023933,0.05541341658040368,0.19418032617148165,0.11994055884650123,0.2878968940105467,0.17857632125811182,0.14546026413167928,0.20155233404086506,-0.183423673121427,0.05691010833827771,-0.20302080531884883,-0.3067400254272243,-0.07081740272382299,-0.17627903752586047,-0.11204782430264988,-0.4471838687734122,-0.006066946920051386
0.12465109640464367,0.35315391597575435,0.43110517584739233,0.3700747506463701,0.7162034366910015,0.42819934680766275,0.6228467769208894,0.5459629191308293,0.9861937630213011,0.6216323335027423,0.011029279229953337,0.31030133251376935,0.33829999770301533,0.5297395261842703,1.1124845708458682,0.6939232401678671,0.7619589912645558,0.574763640977265,1.0547791089884528,0.7359667966699439,0.5289958603340323,0.5015085319382588,0.814183603905527,0.7301451473507299,0.896879066909111,0.7445152432180312,0.9589913531811908,1.0187517907646493,0.9584992335497171,0.9250710703119035,0.644028214201439,0.9680021666932459,0.6894624031989067,0.6806885293767689,1.0824356325328082,0.9405332056406863,1.062399669577949,1.3434893564088515,1.2603545931175901,0.8025897676315372,0.8277079099689163,1.4601016970027763,1.1842564305003844,1.223348794181137,1.3344354069117024,0.931889082289453,1.4573562378148588,1.4410342114879036,0.9323945099985973,1.0908781409441721,1.1629327602372868,1.4517359625000101,1.3336834551192418,1.2761928622200327,0.9391268542739738,1.0053474092843149,0.8308809170954167,1.440204419213371,0.9140751326743555,1.3380896414439345,1.605241844784369,1.5324425889210853,1.4079419741341663,0.9977289244104689,1.1030397103828846,1.1053502059224392,1.118568533405797,1.199049672688383,1.2826470957694287,1.3786560573424709,1.3520112164754643,1.1215079811943258,0.9188808355453053,1.4737559100068953,1.2773659713050747,1.1534827162111452,1.0245797423115799,1.0744812830088453,1.1937437140752745,1.279849124560342,1.4952798563463252,0.9349312424753204,1.2000018200635698,1.3610879052974807,1.0166991651387562,1.0689220833367201,1.4783469049606321,1.2231048786932321,1.1149020496137874,0.7574504988255082,1.217336928337453,1.0402721060126112,0.874220851461642,1.0818686389422805,1.0067089596507504,1.246883149303378,1.0826943966727434,1.3134653603688484,0.8445687040127118,0.755161645711391,1.2938305319362735,0.914014063620477,0.3735073434420778,0.7168354420577491,0.8485971421058931,1.166935126525482,1.036119162562499,1.1444741358134665,0.8907103671600753,0.699685814999185,0.9147517988335039,0.9371965186919851,1.0030665930783673,0.5468758544984477,0.4315300160873112,0.6626871254034378,0.618631363949671,0.775539757631798,0.4371254546243428,0.5075324107113154,0.4470847532968135,0.4965907599612507,0.49540767086582005,0.3477437457994802,0.34949678960737457,0.4912240453150428,0.4541989415644875,0.5167701868297764,0.2812633689494865,0.07561274355995605,0.18948102646371368,0.17118558643620752,0.4390643932023992,0.20167876357880532,0.17980422880400132,0.09974818316502895,0.4603061492737755,-0.23582178760192266,0.13722468336733684,-0.020431695350782056,0.07752658515442971,0.19127947779592758,0.1101785142681855,-0.025753195689124445,-0.15094187815568033,-0.14408088701923197,-0.21751603278518833,-0.21959274071596907,-0.6257561903874882,-0.2705404305101642
0.17247268369692004,0.4346198120343177,0.4401668328471132,-0.014556127546911546,0.4060377094119274,0.5318835405827541,0.7531920235267049,0.3713132624398251,0.7403227059599515,0.5531173867620115,0.20202241392127884,0.3150407644859249,0.5812023870986757,0.46624289054287554,0.8223277136262461,0.531982283379752,0.7448401854680844,0.7910264591622176,0.6002296369451869,1.0431066208975477,0.8060091141457413,0.6456413983687075,1.0983528149416175,0.6904811734746394,1.0434818499053804,0.8492987971639907,0.8855625219805875,0.8746686702676418,0.8560953567134628,0.55980852696217,1.1262763656800017,0.8797178555679173,0.8514253547082836,0.449604366032888,1.4518624055609508,1.1467979815437974,0.5985807303674424,1.3424980581897163,1.2019281944911495,0.7796555423833038,1.1443862302263947,1.2978906123407514,1.0634206087226274,0.9277258654046785,1.3426101942634692,1.1772639162441747,1.3572770062832646,1.3373143656062518,1.1912726413748196,1.237215552492273,1.1651236297945315,1.3253595703544745,1.0739580788288834,1.488997300217975,1.2116117164325662,1.1630210086578674,1.1235096606588193,1.1354152656493932,0.9292556870180053,1.0604204710906247,1.6254777094463297,1.215421579014401,1.4420726388857528,1.1438329130201879,1.1454742177068797,1.34608154289306,1.3515739139167064,0.9528570837212805,1.5077538810478717,1.4610739575054985,1.4460220379533741,1.2135723032609542,1.052011838722008,1.35991105998293,1.2679741281505437,1.159414260559738,1.060862851217788,0.9737249819514106,1.1617343608558144,0.9334352207773828,1.3685990343441976,0.8556482431622718,1.0165981060679765,1.4892895432915652,1.0818277938718903,1.3713253013287199,1.3593268368034621,0.8346699539377213,1.1544413145680017,0.8549493653172415,1.41058120137429,0.8016848257068365,1.0516471140881078,1.056636905123871,1.17800146648972,1.0149755821721342,1.23032027039941,0.9716701752789344,0.8020262913100462,0.7883239333847941,1.3412723634561041,0.7948878047850421,0.5415088177643204,1.0489269106424575,0.7433435350093432,0.9731342734186974,0.8295107860917643,0.843072256799134,0.8417577805279002,0.8195389721036563,0.811886562031119,0.8674246477880296,0.7448704382925859,0.713648265068968,0.5899288155048834,0.8238552602662613,0.6715254935859792,0.5226431299757396,0.39812487373051564,0.5075367150311672,0.4650213256288248,0.45228621027019167,0.6230126732528252,0.24720717335343345,0.06041454478391178,0.3898971717886162,0.6217742080655647,0.10820563185562965,0.1294333811209029,0.04487813007762691,0.02434188103294313,0.07830204961411974,0.31158917334040903,0.06580989281815572,0.2261650411263867,-0.03802105076288083,0.08624079783662726,-0.15445482559756948,0.15579188961814525,-0.2935156516827233,-0.40631686073280376,0.022746051482791765,0.03658573863175156,-0.06452896526145267,-0.23901560191603277,-0.029366682401114702,-0.3273391089332095,-0.2891253020335529,-0.6606281757645964,-0.36513401887495994
0.2952659264318747,0.3578723050561663,0.1837891558057505,0.3164859879090842,0.4117699802235682,0.5065768010099063,0.484186011048159,0.5667327894593367,0.5144897645631288,0.6240432687460924,0.3407776858624262,0.43034102723598155,0.578030172375149,0.1897973921225053,0.6338984157017002,0.46002484200809307,0.9650317686649048,0.8040206893432778,0.9702663341195502,0.6307882503279112,0.6856590862196981,0.7844623627568669,0.795177427347336,0.5395845898344303,0.8537711902136945,0.8524113254452633,1.1330398424212533,1.123611859378176,0.8956577396950747,0.5862184034317737,0.6027921301067554,0.7926623546719669,0.7624660317914672,0.7259711833768007,1.3378396978304108,1.0392323903612497,0.8567825900675194,0.854023277934973,1.179738933651562,0.9810789775410074,0.7537355844830922,1.4069962415587705,0.73752706143266,1.0456737551165374,1.331366440337517,1.0277056180051334,1.2211769512077564,1.7129284308649582,1.3682971991520092,1.0745456022639905,1.001172883189902,1.3198366445647822,1.2778844886430112,1.5459801825828865,1.0997933069513663,1.3259343645401944,1.229111753329792,1.423094003177503,1.120370670803246,1.4898105069203686,1.2509679844937922,1.583100042999877,1.887815420347147,1.1444356303792862,1.2153669183500029,1.344768738410737,1.538130033574321,1.1925527310275523,1.2914406051507203,1.5740679829043396,1.3885180146647684,1.2315875420839069,1.2248240691449575,1.3785987594417013,1.415442185703823,1.224231683210852,0.9634792588178399,1.0360174196460048,1.0036416438081972,1.5142766341529614,1.4037720592998642,1.3078302171206504,1.1336442882624778,0.7469263403179692,1.1607192300943687,1.1767373185364667,1.2325648865538088,0.9133523860544721,1.2765325798843017,0.8775739078282481,1.3727342179021425,1.0675717852333042,1.079738977824568,0.9380691357314047,1.1637773612598972,1.2333285575151516,1.4021396964317137,1.3195911142476193,0.928935512618823,0.727534996147902,1.1091297625620276,0.7277252629581635,1.0412491120624943,0.9607376635029231,0.785806970404221,1.035683506408986,0.9749650579474174,0.9055411185213879,0.44358584332471207,0.73411928040069,0.7491847715727484,0.7284489969534982,0.6466098659038948,0.661255052155523,0.6289850295193321,0.6723734539591563,0.4581391010937045,0.515928073304675,0.07266184628573458,0.3913204284452089,0.4457143235531197,0.8094350294213117,0.424291999750081,0.4295162039710073,0.43895964120809094,0.5150588100206661,0.1996888188447135,0.025524364074332728,0.1899164348595489,-0.012205669144194978,0.4717983518119079,0.08678628084326323,0.1688910325064045,-0.06277084376791095,0.13104192557114502,0.11697393432505182,0.1079341028792699,-0.43740997850416585,-0.16507749649360198,-0.4569012764331205,0.06357571674071649,0.024105646209188897,-0.06955524557094055,0.03781967455317177,0.16625857269969282,-0.33142445764797734,-0.022780626698090833,-0.3057449972558212,-0.37906092831909016,-0.4409339278885911
0.4034763734303466,0.310270936420615,0.36042362459423277,0.263798363849874,0.35555541727637757,0.7670735975569734,0.6991134806389301,0.6428086482334483,0.8170201615983772,0.3509379953746651,0.46058800205714245,0.5849937340721096,0.4947517674865398,0.6755716293134392,0.6692127536880798,0.7742618507999692,0.7631931133667035,0.6578680697683825,0.8925363003602933,1.0659995872704457,0.6378606048123743,0.8499921800139731,0.9799695794705648,0.8562591510443971,0.9320560134680252,0.7114299944510535,0.9113391549690301,0.9816780049807126,1.076051822156205,0.9110995075361165,0.9746424651600311,0.8528295736449573,1.0179818758709032,0.7806344702355811,1.0074068907784661,0.9939812843336664,1.2171426604344213,1.3645435630621667,1.2605871773934492,1.0575234304627108,0.8996997371457158,1.3745962593475556,1.1660063619967729,1.5084673003271238,1.2732297976877287,1.607579415123657,1.2749830521144352,1.0298109056206561,0.740916851062615,1.2205867991084944,1.263858977530755,1.3214545815064196,1.286722483921442,1.4651127424626968,0.9596920501766018,1.3286143629708287,1.038648969672483,0.9649236242142134,1.1600356343437903,1.144645511896189,1.4639701207611875,1.7170273566125387,1.625943669767144,1.0346018258611838,1.2067900164271226,1.159364556402583,1.1289281554287818,1.2384026638540266,1.3550194473491053,1.4178621324818166,1.510170252820366,1.2071393127536092,1.3510284281333373,1.4602383412617228,1.1555187222074967,1.160647377012577,0.8543716953834617,0.8874223820690998,1.3956157796926467,1.1999087288894095,1.2324524691490475,0.9744484825044447,1.2880920000738503,1.4467506691821994,1.0249432440859714,1.0082518315235225,1.1402160392175793,1.2468462012942028,0.9898749649433584,0.9214362032840557,1.4237706382185216,1.140654167041545,0.8318421920091787,1.1727810230066593,0.9660008483530889,0.8175224622907887,0.8300149316791525,1.055869190956614,0.9592468075435842,0.855337712532596,0.8556247370814657,0.779643388400194,0.5732823949318744,0.8019116721539923,0.6387775257555746,1.0135746613674306,0.7627246737598667,0.86191655628623,0.8236095215523972,0.7576087624055269,0.7696622769186572,0.7148388144799914,0.7490608666183903,0.5415002441719194,0.661500288628592,0.7125639365231122,0.3439979079548767,0.3814510940695826,0.43371277233175864,0.3609621983959355,0.4917183490153336,0.010455495618200306,0.4760329789013425,0.2491287043932056,0.4639402420591802,0.591701104362943,0.10706163312741654,0.2763561287581982,0.1635741726082261,0.009269582617666874,0.31817600711972227,0.21356356125381643,0.2530415640207022,0.03660083776918026,0.3352667112325942,-0.018971165672720114,0.19983546870455438,-0.006796999106516877,-0.34747315579195925,-0.348599553268976,-0.13259456838568695,-0.15381105210102147,-0.14953699034424484,-0.3086178783677046,-0.18987484389989157,-0.21057208589084433,-0.40918365445093,-0.3043866091906269,-0.43834511191055053,-0.24065904512472625
0.24137008434568435,0.629258016340418,0.3338616113105025,0.4244927534476146,0.34729751125205194,0.7461351630830264,0.48702070198214603,0.7009596093893949,0.7292265709798553,0.7063732992995678,0.48385926399232926,0.626920243592708,0.5543055497568738,0.4338255425563884,0.7356334268586447,0.8415832492264619,0.4694870177040877,0.9733216791857286,1.025891703051511,0.6833956792788183,0.5821603024037664,0.750989177033132,1.0671190566180069,0.4712221577887557,1.1106412570411452,0.7245707101788451,1.0719363982436367,1.2228731690995145,0.8558549926834695,1.0430416995187621,0.6674902484884226,0.9646919854935367,0.8379656541877074,0.8434279109568856,1.0912023317518527,0.6736390937411116,0.5528065529506823,1.2628383477568865,1.3332833619134628,0.9601433845658941,0.941162976789234,1.2827477807796401,1.0343728803845713,0.9966845667361763,1.3752829997136127,1.3579884047012847,1.3157059489782077,1.334833122287399,1.2169692297015877,1.4269058502507455,0.9336343325093127,1.3749312460074687,1.2835397297704032,1.27913124527241,1.2973767501763542,1.4273596125474366,0.8305316664577416,1.256431352516377,1.221775263500473,1.2423019700702949,1.6310188740532554,1.668303458988095,1.4689395106796503,1.032877266977871,1.3651835199229818,1.336663312509001,1.3564764069490036,1.1117342260501595,1.6770159634820323,1.4199428917789731,1.0138135634266014,1.1536053050857549,1.2472532106595198,1.3267266778986095,1.1971748000362497,1.4884197535925614,1.0948963852214044,0.8148199109947718,1.0330089169983714,1.4306540003054886,1.5474243906974863,0.7827525755796614,1.034952798057889,1.0748588402246737,1.0553224886541646,1.1950778490826524,1.3717668583777665,1.0366322915981023,0.8703701653738942,0.8055065488211821,0.9364409386876397,0.847860660914272,0.8669640776500108,1.3951537492136743,1.1140365521494477,0.9813681275613163,0.9395549240029845,0.9801335037429031,0.7959045947005298,0.6882011113076959,0.7927384702536318,1.1992725390527308,0.6635442340956149,0.9078152173197165,0.754683071642621,0.8674122349424417,0.7850036096964601,0.6637234826804629,0.6248309051235119,0.701299721332195,0.8488225007747231,0.8075322367461257,0.8683007526571452,0.7497637650442939,0.36568524944428493,0.5297055333189172,0.729686414625247,0.3649876781371171,0.44171380247424225,0.5754843441646875,0.7416264925907072,0.5242653742869376,0.27538110784358916,0.182768371776515,0.24405695686214277,0.09885950433907614,-0.011157747656568573,0.3152243344652999,0.2369338485318369,0.16172126863184227,0.2603452511092719,0.12694178543960527,0.3291797949183284,0.24980264590683166,0.1881059524231402,0.07170690552621961,-0.12013727444401331,-0.1549793560441538,0.16020731398005184,0.10087375492620412,0.20455507489937932,-0.2668169514413508,-0.07092292061853259,-0.012799363463953495,-0.41235648947381653,-0.04982032356775826,-0.2993357459494979,-0.2504312155932474,-0.653235290076987,-0.49380827928645676
0.4791421273721656,0.315275227666197,0.36238845216078885,0.4453643128611978,0.34943186578195795,0.5008020576369882,0.3904694038646852,0.2729058642633462,0.684375023134601,0.3642684864125103,0.3375935738516114,0.3651951432564835,0.2743697902418112,0.7047409966379042,0.6765131911398841,0.8393999876239115,1.0786015091386094,0.7404384447318683,0.8335344637768035,1.0550342758597637,1.167441874485878,0.7884809919702442,1.0991745123817436,0.8467860673061958,1.116280276624745,0.8947984365176181,1.1063202621749495,1.10451390675622,0.9060461203108068,1.0094767245392622,0.7563708561952984,0.9658237678634034,0.9548448937625729,0.8135888939086626,1.0860099540138128,1.0563656655409053,0.9897433044910775,1.3452661868260907,1.516301803044179,0.9364250340916529,0.9246536892942653,1.2186388917080906,0.7870795453092356,1.2458929852248273,1.5549587224448869,1.1403038249824073,1.150194153928489,1.211814949966439,1.0164074685522295,1.1344735676045716,0.9005164046798828,1.4078575859187188,1.2589666289276797,1.2318684101324575,0.978654502846046,1.32833149221286,0.7820115743529041,1.440070280066096,1.1077160009755933,1.1678394029372579,1.5874184450459132,1.324545552545003,1.2661201055269113,1.0963948583434244,1.3167860835441125,1.185077753659553,1.3230370972441017,1.092563459169955,1.5086497572187896,1.29798591195983,1.4950854399070026,1.050910850803351,1.0524194411260257,1.354336371328966,1.4639535074265035,1.1795423015483748,1.0606678207266091,1.2748794694777668,1.1869749016459419,1.0078869856728667,1.3321835157874817,1.0628660747002603,1.2133814651848485,1.2327880548606265,1.1226925316040277,0.9811991375128029,1.3997111503559017,0.637327219397869,1.1248063784552131,0.7802176203948532,1.165085795589382,1.0453689484008553,0.905980966704247,1.0869957557479415,0.9005350850367898,0.893726700184681,0.9140279398998138,0.9763256053462958,0.7336383344370815,0.7838686452404001,0.9533896542378768,0.9040023147809597,0.8509708000955114,1.059481426650028,0.8935489664457034,0.7641124499159484,0.7564966891629982,0.7451844140623015,0.7832054622167133,0.758031763283897,0.5657218363289638,0.6097111867984268,0.7535251010192914,0.6375990956839093,0.5904144706681356,0.7619300349002882,0.4572724528089607,0.3833984435852541,0.4861168311153331,0.19524576951183184,0.25198034185493223,0.4876476975062831,0.6192364331392104,0.36247863968729827,0.2653930146644729,0.3364424449993213,0.30496051197405516,0.3816299784663595,0.29826523424939,0.28740915505907116,-0.0107651997556025,0.3862890032607904,0.30891692505777363,-0.18401516394280915,-0.07087111301370586,0.2728151520841228,0.16419174386000907,0.04885407345051106,-0.17741594950155193,-0.18730931985031427,-0.10570292174497702,-0.17337227403138386,-0.432635153932038,-0.1961193650056532,-0.40730048866055224,-0.16909754900336,-0.12659410428864454,-0.4532237458977989,-0.37074377301394634,-0.36584170674436767
0.18788565262871193,0.5838852338790395,0.544240734014024,0.5461490884117378,0.2713684233517226,0.4482556344140087,0.6018837926359827,0.495819641918615,0.758534885707868,0.6185556217363024,0.5174336055112123,0.3131587769796098,0.687505912567504,0.7700437407268216,0.8819615520952027,0.9959808747821303,0.9451120091028868,0.8152304040551914,1.3377292441975377,0.7893401542547714,0.9972321463201769,0.6842068495175057,0.9648378060627495,0.7910933881592068,0.9014884276243611,0.8102738848040412,0.9667777031951229,1.1481396208412658,0.9256196281641269,1.0849591194781025,0.5966570345134072,0.8316793350005538,0.5993514328209568,1.0174239810398529,1.069982222279184,0.9986431053807131,0.8987121501662897,1.3049526877416042,1.151148055301012,0.9646586259649722,0.898245003969394,1.0424142740169897,0.8123103238715504,1.2899189600576395,1.5580026513393617,1.5882075631445485,1.4725709129466207,1.3048903955536841,0.9628661409771322,0.9901289970154785,1.0061396929982012,1.1022479079323642,1.440417142187664,1.4980247189817633,1.2652280380797647,1.2315645319425075,1.3978016739421344,1.2714427314114922,1.5149862104460903,1.4370004022849763,1.4568273421584939,1.571143576007184,1.1731309183710987,1.3383318590985274,1.1763863808652626,0.9622488857569207,0.9138752073790408,0.9000721879347675,1.591846078110295,1.5466049533303425,1.4340032060531536,1.223008556782472,1.078062295144866,1.1723165687604686,1.4662608682829275,1.0793640960934285,1.0623888010786096,1.0323666205215702,0.8349480639768241,0.9250517877357294,1.4466602183478963,0.9763195218431471,1.1355739990767573,1.2225603144680428,0.933221535896767,1.163496313725166,0.9996733236544584,0.6704334128780592,1.1858950285656158,1.1040095817526072,1.1742326027368202,0.8807381315917384,1.1756435757690997,1.0361346422507647,1.002334766724214,1.0319358285455211,1.1174110393118568,0.8352425412316752,0.741527434086213,0.9892303793948887,1.1378883573138519,1.2281065380255851,0.8993787924060336,0.9060025158060746,0.6928204020499286,0.8722334377933133,0.6755394812920366,0.911955708809657,0.5420629695659724,0.5689914202322358,0.7931903934581475,0.5498981093400136,0.5040348049732872,0.39178331828484203,0.2806097075638063,0.2652253957751486,0.846319357981269,0.36701708757991314,0.2632586339335039,0.2885264559626218,0.5537931765904687,0.3894553774686389,0.5951847332005107,0.33002422342409227,0.1656947788992854,0.32501979166642475,0.2360731942891467,0.32718003454653066,0.14453654231937602,-0.21301974057825432,0.335842860404741,0.18969568022708594,0.27329888978959505,0.10689329502845239,0.13867773395614919,-0.11111432963354213,-0.09858984723799576,-0.3445599751249918,-0.05344769110500462,-0.23748464992372134,-0.09676298358988271,-0.059452838373967386,0.028970253451515382,0.05366042773038582,-0.09314365590337713,-0.5346816328258148,-0.42221111390581395,-0.5050559533034568,-0.6121662514973333,-0.23222722214602015
0.3538520548169927,0.27326215197835013,0.6071410362215752,0.3417673663113844,0.57988064039989,0.5935344107901247,0.3607349170668858,0.7844013628236413,0.6731865541687351,0.7536609252100962,0.489530159619165,0.39025153711355354,0.737586337283821,0.7595611165792526,0.7431136211727496,0.796125110323456,0.8165731541897531,0.7656652331480571,1.213317840847753,0.9278520887080353,0.72218963529943,0.8533564145145067,0.912060562969185,0.858014384434017,1.2342493557608039,1.0247210345964446,1.2175823949394777,1.2086271563024928,1.0070223114377352,0.7292586426951326,1.0520087534499825,0.7533036538780926,0.8435243490328559,1.1394999286575394,1.166067212888781,0.9223269785154482,1.1509515672080999,1.3481456630559594,1.214331569672535,1.0749891619619119,0.952859790938879,1.0986521136312608,1.1077358631861645,1.080118882585724,1.563607215290256,1.3644874065698802,1.5509261220183637,1.3247475891749718,1.1186885360919645,0.871231909554953,1.1405568793022673,1.2750142662138928,1.1815590378067657,1.2557693766139777,1.0764407858957792,1.6378892798954694,1.4292943545614196,1.1844522569154494,1.0943421300680283,1.2787335571705696,1.609595875030374,1.4425880502927282,1.6856439057386656,1.2528564399479558,1.1434089445168993,1.1306797224699772,1.3304650498012016,0.9156209796457324,1.5091928055531754,1.4098018933391248,1.458809172931078,1.2771757546633247,1.1181181865203507,1.4435274966181237,1.5901754656457303,0.9525310560548732,1.1287752812548446,1.0225281600375618,0.773448299111613,1.0862818773732623,1.1530133320288771,1.2629161108292615,1.3131318793725708,1.2843225654926884,1.1769184374775912,0.9085372915926013,1.2581855776175976,1.0229976415063387,1.1569496010981999,1.0571122648898639,1.0170468724970927,1.1622778988091462,0.8387537956950444,1.4190919828026265,1.036016635636088,0.9608129883508513,1.073009442253165,1.0793553941182412,0.8714898420339752,0.49135507996022687,0.9462510280513001,0.6726104077348521,0.5113631071380282,0.8872085624929279,0.634429581169826,0.6940838316177202,0.8530112425588412,0.6486378525540187,0.7748075707505485,0.6236015683592535,0.516746421877795,0.8319915454959876,0.8677639354320464,0.47131324459245916,0.32425579984896635,0.6387345169202557,0.706153549182754,0.5165342634637685,0.3561337652962844,0.38472805003294896,0.37787330850096107,0.43678230334310764,0.41913272525381023,0.4297518870585719,0.20008721912574381,0.4050446304259507,0.4127385612215757,0.11204150828252099,0.0349480849660207,0.25754423010520083,0.05585701503618315,0.22467220395022236,0.029574955394008645,-0.12313707192716832,-0.016014803280285792,-0.16200087636461458,-0.40400886158962573,0.05799320527380811,-0.08217899683656239,-0.2456127482035108,0.27183666329583384,0.18022259498900078,-0.11750514337758108,-0.14987888589439854,-0.22761043497878694,-0.23430187709858907,-0.3968733246136816,-0.36374179996885436,-0.20102672399046406,-0.405748211878663
0.450073729382916,0.53950818376489,0.3488013668357096,0.6367948576369616,0.44472676645823433,0.7590839531454117,0.608716394964254,0.4604409576775174,0.9386374034095213,0.6132938470802025,0.3632949926332993,0.47431480502542855,0.48909690835935965,0.6447070147389253,0.7487604741547775,0.9174454592685415,0.8921197946453457,0.7314562420060222,1.0804789537857467,0.7932127885009906,0.8487487984357709,0.5982253050070288,0.9794054377171448,0.8580847635426413,1.2271291349970257,0.4738478157238715,0.9339416718289628,1.2108272711530563,1.17152831018148,0.9562192697150805,0.6597571021523426,0.9153825373594817,0.7329509419871902,0.8803560025810295,1.3921936047865182,1.1862598162003892,1.228515494546081,1.327401698823403,1.010625962232126,0.7573510459919369,1.1167571594902723,1.18912765899071,0.9622390607990503,1.1604712373911872,1.1808523863503562,1.3949531243091478,1.3240136217162026,1.3978165804578708,1.1441291680521315,1.186087566101034,1.2543035352584577,1.415950831360999,1.1249600619473683,1.6605204217898573,1.0039530420364393,1.4764682664937816,1.0952386169266255,1.2680846465056645,1.2423072064626968,1.246259672225155,1.4671423437465292,1.1796229800536138,1.3500307860928413,1.2008591492598677,0.9514779305246888,1.209200709301537,1.3594714230090346,1.0442652273723985,1.5310615480192782,1.4215127516511303,1.3216670146661815,1.175827457200844,1.095506043726437,1.3597130988018158,1.3937909504568342,1.0650328876419357,1.0917999322270997,1.045985620521158,1.0154946638386222,1.32375865123764,1.3011170309825943,1.0744983725248762,1.5015497920736336,1.277502421687914,1.1239308810219728,1.0037050933943141,0.9131855345224787,0.8296980191493942,1.0180754597064516,0.9542907616009111,1.319899494672536,0.7337850478359333,0.8805257832441397,1.185939640711465,0.8756140476623375,0.9749760173811777,1.0214081294791806,0.8039704949036973,0.7641814633356788,0.6975441556030877,0.6870136611262836,0.8770506703124691,0.7502473202931934,0.8906480649288628,0.9984717650211484,0.6703922160917499,0.8937234223219512,0.8744848020703786,0.559139137349924,0.5331765602576937,0.807295490320771,0.8110484512714135,0.8488122015141261,0.768482401071392,0.3212338258301115,0.316847741423708,0.5493813580321001,0.4608248740704776,0.21504857392455573,0.36264566391902675,0.3217613728600815,0.4268841660175252,0.21179074524135424,0.2036322602750234,0.11873963981539544,0.3556571745935639,0.06618728968152594,0.4248396870556719,0.005814383633644154,0.030737891807793006,0.07716494541552624,-0.2741833735449095,-0.06373705972120933,-0.01069352372257689,-0.11832716640732183,0.09970968657624427,-0.023566136922640965,-0.3099003976019668,-0.3084227523633279,-0.209851475040993,-0.08025302918036248,-0.24008064700092768,-0.07187441152132369,-0.39646981038133855,-0.2631149530218084,-0.19040676105030796,-0.3812925719449315,-0.28099900976671627,-0.37784808009245274,-0.2550078469018855
0.34204819882720333,0.1622971235883319,0.41265002410785145,0.6107311430482001,0.43183726305637354,0.3111542871716037,0.6872300416323627,0.5366036636013969,0.832453403891251,0.8483133036866727,0.4103459723545437,0.6356818813697238,0.692303424082401,0.6455957593902183,0.6779039607656029,0.8290873923031772,0.6675216411187761,0.8946613201532663,1.1060393883346402,1.0525860802372469,0.5788960212702553,0.859607936939456,0.828768762661114,0.7897988092427669,1.1225841023816954,0.9062772235898849,1.3209568570172494,1.494458095521504,0.8773269940928883,0.9177515136886307,0.8158969095161135,0.8824406467062573,1.05261560227221,0.954455356607193,1.117583233883251,1.092334076300765,1.020217788345797,1.3812028682464779,1.2780360477971597,1.3187825014695926,1.0772495464275267,1.4608062438592326,0.9569097358146358,1.1366504323959021,1.2392176879066545,1.279518643251829,1.1705176623922164,1.4182042152747896,0.9207844029382057,1.2486950035527595,1.0849560894648866,1.4366297141308058,1.186297073920106,1.4855883879248648,1.0724286829794787,1.0480127912277823,0.8307987005165465,1.0380292463090033,1.1830326508265294,1.0934038300754578,1.2467847431968728,1.3442366007962674,1.3433941498391266,1.4620223528549001,0.8306687564295273,1.2493948268575141,1.4279831106538379,1.1855183020415268,1.377462763488159,1.390073895763324,1.1371151942051925,1.0171912296924146,1.1517969582473662,1.4752286481909267,1.2159435746173581,1.1552226207513592,1.0325311408962832,0.8685367645108585,0.9066400306229353,1.231935995228258,1.2774509299637278,0.965941413222094,1.0481156729987902,1.1662341081578769,1.2133419028134123,1.087929808068267,1.0630484004365512,1.1096916595953772,1.0383355728582402,0.5406137937082776,1.3456415671607682,1.031192129300988,0.8617482790495431,1.0594872098467765,1.0685661857183435,1.1113458678360537,0.8842653950515676,0.9403949346505887,0.724492490548245,0.6409682724925756,0.9358953755057164,0.45879560858551055,0.7863843271149947,0.6505731658978559,1.0820969262829208,0.6636079613963319,0.7595124654479971,0.7890001786262685,0.4707498395156806,0.6862955796067699,0.9069457828388199,0.618352130534008,0.6012539835727984,0.4707488535977433,0.7522884256816729,0.49174551793702076,0.7414503747153481,0.41589811976452523,0.39295548311006767,0.33858507530357995,0.7490596591494965,0.1476980091231489,0.051777389549031105,0.3158518148481024,-0.11815354285924959,0.3039366004740814,0.1470698112100284,0.2698859810852916,-0.0978327110183394,0.10541304197908281,0.0027805646988763866,0.1897075501665613,-0.037124594830240665,0.21039380043630615,-0.06281409412846944,-0.19558131511202506,-0.01433815470771295,-0.3093051290423747,-0.21766294017661486,-0.2615371674372171,-0.2411857462037696,-0.06956544017570403,-0.09388930229746102,-0.12404454107975427,-0.2615291911259441,-0.46648623878361495,-0.4539979973600461,-0.30831384447164617,-0.2702359982990558,-0.32845807171688035
0.2297786437840157,0.5070699016052268,0.35102410399296996,0.755615581532217,0.193507036532085,0.7941437752365762,0.6775293318851954,0.7561180649567545,0.6970991976707652,0.6751229468050546,0.5912526959181211,0.3312435184105077,0.6267095413500737,0.8573125396567528,0.6909245330976242,0.8493413486372451,0.9125855788267361,1.1180770999432381,0.9780125950480274,1.0805606870197106,0.8587234517064717,0.8564594254542773,0.9486405971539114,0.5207987894584725,0.941361104492822,0.7282705730117395,1.3110048090175848,1.3064687250359985,0.8299967695527161,1.001616634881869,0.6329248359314134,0.889224453519461,0.8214683462280524,0.6985210833736542,1.1639127883533635,1.1263665420085627,1.2353143556717427,1.4750195811760196,1.419114744230614,1.0503280168115354,0.8093357789740091,1.3679162627156018,0.929208723877937,1.2454994043713372,1.270290795042093,1.5300412003211736,1.2544728433968784,1.428411698974171,0.9939266605106105,1.1792050115902972,1.1511043294920977,1.4575810079816234,1.1598621412650245,1.641948016453067,1.118414374116471,1.3136466468001429,0.9759220644270267,1.2259442933253073,1.1627941492303187,1.204506613136531,1.4148223460499676,1.3542118000817491,1.8472917766371195,1.3173835680314445,0.8598250379885256,0.9634594134625417,0.9801777119977765,0.9923421420898719,1.46637291120993,1.2744869838256547,1.2112716439850113,1.0453719547381672,0.9642065870899404,1.2162550036118867,1.1461990203134025,1.1302211824079615,0.7889227140034675,0.9567771625783189,1.03331084712446,1.1484337483117142,1.2699025189442092,0.7899348765478051,1.135907646008015,1.1531397067091125,1.1627482791105679,0.9591834711865836,0.81313736439152,0.5928929883529459,1.0351321921489274,0.7588153629032883,1.0793717596716834,1.0335372992914578,0.7690145303367752,1.0229912077684413,0.8185272078453929,0.7666720657594377,1.0369403246247824,1.023288764235031,0.5963884572444986,0.7882058559312116,0.6900772548387837,0.7960269263962642,0.6011989863477801,0.8471441555674376,0.612368909117259,0.9064526059648229,0.4005026806555928,0.64539285218702,0.5423477982087461,0.7618495912380466,0.4328584448898709,0.7803390870354591,0.8706594502279847,0.5145298040808554,0.4955861103728975,0.6966483836534808,0.4459631133447298,0.2499876482399968,0.13523112897724027,0.19813761668944768,0.5513757634413221,0.29982021310322343,0.3070901921931607,0.1532280611129499,0.02627264752184877,0.18945847595522747,0.2871042923286815,0.2787014498767793,-0.12534715818237854,-0.07622499264550084,0.06445961449133329,-0.06845419060682825,0.11278714167936568,-0.1908716119477198,-0.013249204134830508,0.056442829309737264,-0.034809417640777676,-0.12349437045845686,-0.24463265766211612,-0.43522523743517527,0.04844451719868792,-0.05001423395088454,-0.24280215459253962,-0.46568302664273986,-0.49097810185618407,-0.6450360833939701,-0.15096567971396585,-0.32878502757043443,-0.7281690193088719,-0.7427269860534296
0.2163644615150712,0.31095370748318174,0.2897762028424951,0.7040075145935212,0.32475296715790114,0.6283057917647618,0.6519248113490151,0.5863615538967816,1.2094075816800745,0.6420827797210306,0.7378816229733893,0.5365666789692288,0.62058692217128,0.5865654551575611,0.5438022626678185,0.9001811774671072,0.890520092746475,0.9547373088815196,0.8702565451445292,1.231109800120124,0.7156885941576587,0.7651267185348685,1.2065626299147343,0.8747765213293064,1.0650046874306132,0.8842149961524716,1.019840963354247,1.3095850848346762,1.126258885764418,1.018166239633226,0.9874033918030489,0.8308092753724197,0.5880749081281579,0.9386105161555811,1.0680919640305853,1.2936216746552496,0.9997081622076556,1.3262080437409642,1.2537599078046127,0.8932706945855948,0.9970400951675165,1.232437154790553,0.8721940625875564,1.3130506627771654,1.3250003067250051,1.283982724282398,1.5799279734847975,1.4692960318559283,1.0195011719534055,1.2650527018477475,0.8167885198842268,1.3539075332553276,1.4741642075780563,1.311584833033329,1.0091941760680765,1.2780851580140304,1.1670290634681961,1.1196331474994223,1.1066350191506393,1.3938846999565997,1.603456858016775,1.0944297601157835,1.7452080181377765,1.3837038994449395,1.126081758963625,1.2804127307903344,1.2891816158695297,1.0772297091035266,1.5094780330424624,1.1666994529451842,1.3153087879832241,1.1328815614000798,1.4174056885900825,1.442577379757001,1.1610644915995223,1.0712280465474808,1.2527115521871235,0.7888836727177777,0.6519162854713114,1.1852258661049018,1.377415472931369,0.9213061695073659,1.1658713058294532,0.8091323129074779,1.0275928793903966,1.0851484152849833,1.3633530992356704,0.7443994246109334,0.8304798550487478,1.1134214477854614,0.9633453963502121,1.043681152221473,0.8917182504635751,0.8760628120712273,1.2421378991090815,0.7356462594084202,1.0505781198217785,1.0033969106586025,0.516644764360571,0.5896224894629051,0.9286937454538579,0.9203057624114127,0.5567052867353212,0.8967901262112805,0.7113702037492246,0.8455463161593683,0.7705887501858396,0.3970071792612757,0.7508932747153518,0.5501688921389474,0.9168202984641654,0.591376225191795,0.4877244112340502,0.5586805398947718,0.3660480152577718,0.6547496874692541,0.36694569062347326,0.40601907478656396,0.1371931092147023,-0.10210626235553383,0.4250176522782884,0.41138132378266357,0.42520402749719477,0.17057024962622247,0.007351356760578992,0.12055833122288645,0.10379920289848342,-0.0598081480561185,-0.03474243526327044,0.12669481535742078,0.12375604484353891,0.3159924470061752,0.027150260021542486,0.06158235699967964,-0.009363518316002496,-0.1327687012484227,-0.1556163549050683,-0.08385881436434839,-0.40708029167569726,-0.2721729471136332,-0.0825743459802006,0.272113948710593,-0.10536595880124522,0.011526569010508636,-0.10360342216992835,-0.299616675112702,-0.4036942364299646,-0.2994504531247478,-0.752555079185768,-0.3937591228191405
0.2992452294669729,0.3751818337891648,0.6311354600004718,0.9385200329131791,0.7095079853259938,0.6587175640035425,0.869419744731053,0.5569805432188177,0.8999137713315348,0.8378672661695525,0.35634328721095865,0.464243053219316,0.5166400176072551,0.9617563765956852,1.0041845761023551,1.0196922830211217,0.778792075287229,0.8677987727693189,0.9846224164551765,0.9680168213687262,0.6657749788526204,0.4943997426911509,1.0396881629444414,0.6408375119124143,1.0979543325743701,0.8979545637745435,1.1027906216222567,1.362482971384198,1.127184039363369,0.8872840772697049,0.8222207419203419,0.8377853658732655,0.6665334252906427,0.8429956133632558,0.9088290039253152,1.1767185974866394,0.9862522801362414,1.3734306701000414,1.1387723294711953,1.0905378766099392,0.7352991695476839,1.4697527374093298,0.6567159477634741,1.2482627973992289,1.5457768397996825,1.2972712026732707,1.1835814422600417,1.609061440120419,0.7975928892348944,1.202916927954684,1.0867985986653943,1.3376123541222151,1.2810237754507199,1.3383767810279128,0.8666013634795655,1.2744397536486782,1.3329272925320574,1.3427806837810292,1.373463278537462,1.1553829283839978,1.4541164160223434,1.3889881483648288,1.3376044701335246,1.311298563477859,1.0686152599444223,0.9476790680069681,1.1915217184092657,0.646256135112276,1.2474192125513375,1.1146457068314748,1.364458152269141,1.1550300217891316,0.9584144058054754,1.2251939709666144,1.167712325351663,0.800566804466553,0.9626039515617453,0.9099222890287518,0.9202079814148356,0.9631204823735398,1.372617142520499,0.9513218638354637,1.3993633348887673,1.1405515110997344,1.0211198091100302,0.8475962748837347,0.9275546295258627,0.9691963387611731,1.069003645538819,0.6950919989314438,1.2085261746281812,0.6442028765610234,0.9972246279788695,0.9976891039738807,1.1982626853434732,0.6784591652458878,0.8941255391525573,0.6076493048353593,0.6616976178430126,0.48509666533936896,0.7820084653372392,0.8883328113411135,0.6611258924731888,0.6752873617321218,0.7951154346382212,0.6334431224049238,0.733435183320601,0.5799743497202554,0.29736127265871626,0.2687085056542523,0.6191218779490737,0.7987116490055284,0.6420669114680998,0.5028249966890566,0.28937055686509583,0.4366485042892991,0.27924745449838195,0.3808676560748687,0.41479995564319216,0.3465342556018673,0.4742646783401021,0.3082930287670894,0.367486178996124,0.05995857678347419,0.24597771647944014,0.33423307911712435,0.4031768366980582,-0.04385190598173049,0.09006600179370397,-0.06999511349408388,0.10608141518567889,-0.0017994596198659535,0.0019832054727445397,-0.36781744113478715,-0.01973243346927976,-0.2948201922372583,0.08470696713124054,-0.32075706021932476,-0.27456600786964547,-0.3249607558081837,-0.11540447928843209,-0.2396777066546832,-0.354930595993658,-0.15249190831987783,-0.19862071389475827,-0.43496104304247696,-0.3119307412793464,-0.6411891319935977,-0.521684987899532,-0.3399548827426264
0.4141738489184729,0.3977660260373426,0.5430669513602868,0.4207183124782462,0.7140688626311614,0.702110927493874,0.6730366012582147,0.7816646977836266,0.9520209909385651,0.8583407322065443,0.3675044155866161,0.7309659036343596,0.6973172433374331,0.6913987267323618,0.6123765267444451,0.5691263659906229,1.0966086463257878,1.2802108635782332,1.0371154692100253,1.1030141683671786,0.7253021023300177,0.683600795369183,0.6775959187365739,0.9763907007035604,1.0929037760770692,1.1368147432917282,1.03611190620288,0.9339018777024033,0.9866080636115854,0.9534103472812762,0.708501565267198,1.0360796512903436,0.9230055727334215,0.7544694389923858,1.345320637193827,1.5098192511717379,1.049422596536243,1.1197327381587252,1.4019858479067302,1.06827055948512,0.9915210955604389,1.38788699314776,1.055842443452144,1.239961931848562,1.271606262450772,1.2227664733620056,1.2990075758883974,1.4191352976686469,1.3852753542721365,1.1946415577816285,1.075052700514912,1.5087493146062305,1.5101448041927672,1.5456745269198024,1.029196274264972,1.458331561933847,0.9584789037536459,1.3600443968877398,1.3255455121591675,1.1139675268335403,1.6339691679727437,1.5242945937745747,1.8004215397081327,1.102261330191047,1.072776569370351,1.0544577276712173,1.2990383888093193,0.9689495863402295,1.3447762054256556,1.1962802829335661,1.2461767862287398,1.0748725095892941,1.3230567423366466,1.2707465757848944,1.3861277295554473,1.071949124224593,0.9809598390555021,0.9050810662756126,1.1013039747785112,0.9483344618083341,1.48977685959203,1.130682844944693,1.0245297134872697,0.9306782258182067,1.0315554148377788,0.8412446443168933,0.9843556568760295,0.8103753062770406,1.0067322701383277,0.7635559976767762,0.9822349935436993,1.0358417179884314,0.5750129017072867,0.9962844919577349,0.8578545343104165,1.3670803793329898,0.7910619347994625,0.8708922213778538,0.428010258031713,0.5874634989099805,0.9860124490275719,0.8827459616962896,0.5913365456340391,1.0919655031422273,0.8203613805953562,0.5108150810372952,0.6242569561898365,0.38570018921817006,0.6803653539538929,0.5494449595693254,0.45601641739503807,0.9537962968672804,0.6418244255279664,0.2991530872023519,0.47481416521356357,0.5500941826328271,0.5112823107833202,0.25257645848589844,0.5030905690607766,0.10740125566851068,0.516759847497575,0.6266667256404066,0.4166955424089511,0.24584843652982982,0.2320583995849672,0.037691237426982285,0.3633350572965324,0.06843555935011233,-0.2278404557553389,-0.04345700268067955,0.15592698161057064,0.06423318584038006,0.01790728152779185,0.022700451366770784,-0.09935306665599071,-0.3295775218942593,-0.1691027687313545,-0.24160719799685143,-0.16761150874479808,-0.39592622132953054,-0.3019032165083212,-0.22758841938024837,-0.40394090749987127,-0.23736859646235325,-0.1692156508798699,-0.47382542115439075,-0.45760914356466764,-0.727646507232246,-0.571070787114426,-0.39076060725021194
0.2429005192140746,0.3597051043873736,0.2575973036896427,0.7088410226281116,0.21535129473463255,0.7037245462819153,0.8050870959202412,0.7008116518532975,1.249605466652082,0.7299592502130051,0.5523969020605811,0.5873310951585368,0.8853633250684653,1.0282144579393862,0.8405895850592054,0.9247375714133148,0.9144422214075554,0.8864194462768532,1.02727220205435,0.9898188673150234,0.7985884523409371,0.499772347452259,1.0331591751942009,0.9240789697968554,1.093718916940738,0.7371595452654909,0.9878350874839772,1.4780317818935358,1.1253873466794542,0.9587191682234713,0.9663069377051845,0.81513401465818,0.8503812882049032,0.9930977671178274,0.9647003415805937,1.1495101947581157,0.9835585208486866,1.5566763758237814,1.281131553138813,0.7450356457772012,1.0332977210473275,1.3218569626428114,0.9309834517904452,1.4799591333646391,1.4939366134105816,1.3785507415337923,1.398381371398688,1.58936649765721,1.1205443465696994,1.3280412840459133,0.7072966661398528,1.1947470622144967,1.3707223318367687,1.1404765199828995,1.232210879483014,1.4030540990944798,1.0944712166493444,1.3262478853032473,1.2330621016989438,1.3073209112997206,1.2427598142731024,1.5396164800650298,1.3838805599371686,1.1676055332206248,1.2119483686371444,1.1347725991117297,1.2029633260119004,1.0075745020066424,1.4622277617735284,1.4238652321185292,1.288211315853545,0.9580330946128769,1.1603857704440186,1.4002589024087324,1.4105006809497451,1.2431063740186847,0.6037831018928379,0.9753135199017204,0.8581997800142134,0.876125214051745,1.5262778830949288,0.939769625127598,1.0055447958574633,1.3792073599957289,1.305842284740802,0.996334822981216,1.1692679653137221,0.7134671548839184,1.1049846316243281,0.7050657681447906,1.3132233364588908,1.1194808254922959,0.8781170043610275,0.7611431864409401,0.9566981813700209,0.8300114717612351,1.102993692194574,0.8073366606826012,0.4973168281636329,0.7465749770896186,1.1184790744785584,0.8023296832819176,0.6944160532430476,0.9283359058345519,0.6966791127711877,0.5112281819323465,0.6661575880329428,0.6021851175780828,0.5791561827913722,0.6410853193605035,0.7579777425405537,0.8322788816931994,0.8044753977703915,0.553941877591202,0.30816079455332873,0.33008953665041796,0.5500362135644766,0.24298150694915496,0.21632198085973903,0.06479025764249527,0.582192275987764,0.14536608612346535,0.22458196256371987,0.169627476011266,-0.03448626555313558,0.20755757369513755,-0.09121729042150732,-0.2856280969181629,-0.1347438620596118,-0.07579341571203037,0.22209867442572878,-0.15555262866892888,0.20990815319520223,0.09715483882053365,-0.24596829362848271,-0.3436420020893288,-0.1287797352512141,-0.3253778083868505,-0.24684496481460433,-0.3978289032878258,0.10346104816895764,-0.06234779695653579,-0.13427021878939313,-0.10621520884141625,-0.23225794008035,-0.6659764032439945,-0.41679524706025833,-0.3728777400030795,-0.8341572225252247,-0.6703504875258504
0.37612231826199777,0.050599025820324106,0.6804049196343622,0.7277413949758187,0.7130243067443185,0.7291575732386922,0.8222184279678026,0.700187117932694,0.9620534931210962,0.9137846275471622,0.21133087083798857,0.5393431198676759,0.6250815036283068,0.8214643538547244,0.7020764507549632,0.9885625577509917,0.9551273142956889,1.117699966347381,1.263159747163367,1.190030712296523,0.8458084387106343,1.0852161661561814,0.8207751192700119,1.1777574984358146,1.0747552544068244,0.7419509795539829,0.9567630463197807,1.200259583677695,1.272146607628305,1.014196904558265,1.0339213918883647,0.7891243644478709,0.8276602676425832,1.0928709838569814,1.2870401586441245,1.1533260898701454,1.1586603865829734,1.3276440366843163,1.1367170328452252,0.9360186124005749,1.116941387942949,1.3320748835437157,1.0731067907941596,1.3324218272633772,1.7936603235553013,1.4222148342487282,1.3077914233580152,1.6132998015027455,1.2553788535148305,1.572815232991639,1.3043532809718865,1.3785623441534094,0.9991340579184452,1.4546232196945748,1.1580287688440414,1.3712673873588723,1.3755439366316498,1.2059993314767998,1.4792197740158874,1.2023049693570929,1.46769999665328,1.502013856071833,1.6045324747705296,1.463698580023844,1.116682166785852,1.0813382610900744,1.2277957291254518,0.8814983888185683,1.3537892877481121,1.5657572904197685,1.342316148646909,1.263052332093261,1.1245344655773963,1.592065815597407,1.040430990599114,1.1698641423287683,0.9266769871224854,1.245904190433253,0.9534460281089006,1.069091855964976,1.253335821137238,0.982954316078389,1.208991543038217,1.2415261985156603,1.2261454407213126,0.9649681764178215,1.096593832236125,0.5537640438044934,1.2251576090133744,1.0049307898849869,1.1060960267075273,0.9834369802541896,0.569147973786721,0.9610928092643239,0.9240444974691326,0.8651266773148537,0.7424945106029497,0.9242046710336365,0.6549067037503911,0.5992930085563983,0.8696058885452083,0.5693580431809728,0.6235943258880002,0.7813107047896171,0.6364664856732555,0.6404977089212315,0.504238155894483,0.650846764236465,0.5991214017578006,0.2980238233463141,0.6317755250683782,0.47815185765453483,0.4054679487960279,0.3406120251896896,0.5715359830752289,0.15830520951003402,0.41117823199397674,0.22086420257744807,0.16577111464126032,0.11730935031045797,0.05903612024067301,0.15250974365221562,0.3542262599914362,0.15652310613526002,0.13060054774480437,0.14023517401723665,-0.0943066325078296,-0.10820061550105617,-0.016518305315405518,0.005653610156923533,0.1346258722141499,-0.12042556897926676,-0.0776271816403937,-0.0027158570982978927,-0.34671255153078284,-0.13749007376398997,-0.3629692274523104,-0.5142798179712701,-0.23253369941879126,-0.27176705746108165,-0.24709289494053757,-0.2540709953466371,-0.21461737785028717,-0.2771527833056813,-0.7799126845486533,-0.4971371326383696,-0.5861211966962582,-0.5292234278648164,-0.9278491804246142,-0.7432542361843479
0.39672560903470033,0.772582842426411,0.40653727442941084,0.5733269561126156,0.6089135466653047,0.9602914362634581,0.6478476267309267,0.6639992220694649,0.9798528641265453,0.9203498090028355,0.6314925761422776,0.570881002787281,0.5000787182460305,0.8529063848153429,0.7151076228472513,0.8293868560967702,0.7266317475625743,0.9370496381377825,1.2185084002798925,0.997690294642346,1.1372858681123468,1.0038118465866337,1.3933906445499546,0.7063244769379053,1.2944259841704329,0.7593636674371552,1.369142362192464,1.2553834476074088,0.8547214675721369,1.254154602627447,0.5848804497229027,0.8470991732998528,0.7013752739453859,0.7931479306889787,1.5909957522789029,1.1289234558772334,1.278810469092683,1.2481746481482725,1.357673444403122,0.9597227313373863,0.8733043364888343,1.3143433823646296,0.9338941362959241,1.3471192817243367,1.3794633125983284,1.3553188724489955,1.2796243836797527,1.3240284709990817,0.8824695231047667,1.1920743258248552,1.023015601397186,1.2199680773330015,1.293979524549103,1.6414560181350808,1.1549665275173082,1.4158258614487853,1.275462989001922,1.1127144295942188,0.9509959221403775,1.4071706104394175,1.5937526554089783,1.497622362611727,1.433005450974089,1.0312719262270351,0.931355683272024,1.0846337310906082,0.9269075806392797,1.052478223874162,1.4169237501371552,1.3989178853384932,1.3498999789622153,1.3254253835762255,1.0397201251972081,1.3773283155732354,1.1793073573781263,1.0689359230986066,0.8883672892518677,1.0639693133091785,0.9359604433866671,0.9066594318265617,1.1963437625682178,0.6181632447613821,1.448665741395357,1.128817082853254,1.0770214497988708,0.8296474628934717,1.074023503765303,0.9174843795713841,0.7065968763860538,0.786543939252451,1.124185207593873,0.7893378872853887,0.901991002614178,0.9285149837636785,0.7329898486593842,0.6040172426327499,1.0222690753313761,0.6033505500432356,0.6755744019303633,0.6507503990810419,1.098319008557481,0.8781994973284746,1.0207654539120035,0.9175121641226804,0.727222329340938,0.41115030355059856,0.5844401960701556,0.40474562920811524,0.5231751964034073,0.315236130459878,0.22570765083014122,0.4684149477295336,0.3601217483345614,0.44933840859071233,0.3628911716542174,0.4891561360933042,0.32197082852812103,0.009715055934135075,0.09932805753469894,-0.11072381654719593,0.32334714989230395,0.504148875103397,0.3279599708982615,0.0732325346123619,0.18380998734134912,-0.10866872596937813,-0.14480097530555996,0.10923968281781554,-0.1990205948746829,-0.34126438042749263,-0.06739664942155894,-0.044439706279853906,0.1149350912787912,0.06746623887587323,-0.07349589006636803,-0.28839213568086436,-0.20285468842978613,-0.48897611415481135,-0.36460084562154965,-0.5031733329181379,-0.043297944759890544,-0.27511699054106886,-0.4472837889017978,-0.11986558978816342,-0.4443785379503622,-0.7208019568045232,-0.5928563974414339,-0.5956226386315258,-0.9100131333966639,-0.8496326313056893
0.5148007643190863,0.4347698920064962,0.786274217069166,0.6820197847537091,0.3151044559773597,0.7671795373637971,0.7749906495622737,0.6961494188380909,1.1058720856261448,0.7471068424786984,0.3466462228421141,0.8392363043563565,0.807930262927762,0.6693733160246595,0.7334823763962296,1.0142220357026088,1.1679281063547533,1.1221059672880151,0.9459342457973221,1.2031925487825605,1.1830594248991562,0.9323562041641994,0.8781439967983355,0.9071355023588665,1.1632949488814757,0.9757207277642399,1.209277543714429,1.0929662565289848,1.1382584631914108,1.000269494649158,0.8950470655576745,0.9465463353222908,0.7247578702588565,1.083569087243521,1.3859966539017259,1.2445999687552038,1.2349519608030288,1.5520918942678332,1.3245102931981907,0.7166486938301693,0.7219312988057479,1.5704598696494112,1.1905366103383865,0.9485701767169379,1.2124228635703271,1.4100688981017793,1.1882433770699412,1.3856971652526384,1.085473159010846,1.429101743140694,1.5118767236175876,1.557051108534902,1.227539164531737,1.3411040679792627,0.7430106904110312,1.1305183792581437,1.2400224090093366,1.1547783733838328,1.1247180352781403,1.176378442934369,1.896286908266696,1.5115039018388388,1.340339967770346,1.0489395478389698,0.9851663928663502,1.3821619695127805,0.8292144709596969,1.1197383197262423,1.301247677477186,0.9738314611532921,1.0266773522229455,1.0792824866785298,1.1739214878078577,1.4458771789306013,1.2634736945139642,1.1728758050952135,0.74463444650468,1.1885777275234777,0.8542543565609972,1.111587841858138,1.4543801561746512,0.8774550486555972,1.1781816637794233,1.147124306832305,1.0374552244435655,0.8935566678711324,0.9660030277802357,0.9435703530819182,0.6427628153286338,0.4447151815135523,1.2010413588901019,0.7789722882005843,0.7782928441539682,0.8293839307601362,0.5289932594028095,0.6547300064450653,0.7622486369493082,0.8067724815171904,0.40813056325494657,0.6303536352199274,0.9282866046782408,1.0864975781609005,0.3831443393975664,0.8644048044053751,0.3786859957892815,0.5994294413634509,0.6807205557456426,0.3851606902703094,0.23441191911443085,0.1916899841127837,0.3541660465379377,0.2799582297566441,0.7677663124579515,0.1028357159499022,0.45136259730384043,0.5345410773462028,0.1590821792067137,0.0178547011668532,-0.029415057721500312,-0.03844770553969885,0.3119768392728677,0.12407176418275867,0.42308352836667257,0.09210069544432647,-0.08405298097231305,0.07124924513565054,-0.3138739318391434,-0.14565930854818898,-0.02502694774913347,-0.34920875275417085,0.16692073777964705,-0.21615220294732737,0.013205995681294769,-0.12647769535827572,-0.15229099590410905,-0.22578412583151958,-0.2272826645727718,-0.143921372410092,-0.6641000955426171,-0.36572373052806795,0.1507892707741457,-0.4645730429850463,-0.5136121920153462,-0.41053431873238655,-0.2716690405954806,-0.718642625536263,-0.5082801144878356,-0.29672010067277743,-0.7158863395644034,-0.6521110064004854
0.47888978799716503,0.29891000249164923,0.4794605073962132,0.7808251400993637,0.7294386413511793,0.8619437155878207,0.807929451032011,0.7145245911105684,1.011684116557399,0.7636634467626521,0.6880907078685143,0.8099096768861791,0.5906286593209668,0.8598582275184015,0.8264814474345183,0.8621478287466589,0.8087583087466426,1.1450666812028927,1.3069542140220423,1.0627752201062315,0.7989142711275992,1.1269704194334187,1.0507326025607844,0.8451204776926934,1.0966240700679877,0.670951169746212,1.3683947701575434,1.3101820109662745,1.230063893155936,1.152769558349414,0.8570130487452998,1.1452363928040736,0.8385132119062639,1.1752415574371395,1.560673387978227,1.277468909540828,0.8638689472130837,1.4701464849509134,1.3568129236691757,1.0008923973733044,0.9252495617794403,1.55233048031548,0.939251354006901,1.2306214627718552,1.2034126091043236,1.463941880291756,1.1114313907025062,1.3492229154159447,1.2321443403549173,1.1879064909773067,1.0411922957886919,1.4289074971572948,1.0620672078309605,1.4147447910133846,0.9969708762529284,1.4083484464807816,1.1634199081021994,1.0087971548895664,1.2439471178120516,1.143116750513747,1.3968188385774705,1.4996417338044945,1.563819019604257,0.997156726359558,1.1340502504179577,1.053252223164413,0.9128672104766357,0.5704356011024556,1.4254761786312893,1.2909344673399419,1.317262122566438,0.6386937207574906,1.2656748043872932,1.318714774303153,1.2877114590667345,0.9005276695822683,0.9000156453003161,0.8403598067103542,0.8120495361053316,0.9820455797112901,1.350962105821469,0.6669057395921206,0.7137829567936743,1.1901401067080601,1.1491447957118628,1.070696246898752,0.9568413208248311,0.6187716234050143,1.042247214495219,0.7504299574335183,1.450917335874903,0.8062199305961085,1.163358330904406,1.002418719725061,0.48532994153034376,0.9914915993013786,0.8019771257760085,0.791070800742967,0.5506365590739659,0.32172581111588305,1.107154921036159,0.6509323849648945,0.6329270308071483,0.7333245150878007,0.35484187616862173,0.6862975423594706,0.4307728379385759,0.5390867611919314,0.27382423528409794,0.07179821950411,0.5612334347750305,0.4630524376403511,0.5563488626965956,0.22242096023543217,0.37018578266439334,0.12639777983138362,0.0013123155632634442,0.005931996860545796,-0.008491809153990192,-0.18034326642905812,0.24364525307762613,0.19750098027603696,0.5006932865487411,0.00312974470583377,0.027902125221209294,-0.01449295354541421,0.11903899961313613,-0.29661109085288395,-0.09151691887966039,-0.4112494007850477,-0.11155062680964303,0.09814999133566386,-0.017298693878011945,-0.3053519324369183,-0.26606928602618596,-0.4900833292746306,-0.5403632187363296,-0.15848841889092813,-0.18288577229815947,-0.5361397326929783,0.003992826019123652,-0.5893994960681366,-0.24726899071107683,-0.5372287843761427,-0.2842748680957737,-0.7564286147535204,-0.33307620212739386,-0.5589694004961132,-0.6019804273819649,-0.5485747931291278
0.5129648179569506,0.7016143551689922,0.7178611298108735,0.7724018222765762,0.6472705547824306,1.0037317924582783,0.7997702795078989,0.6124851651947253,1.1528093719130095,0.6892885421388694,0.6684165460010278,0.5882705335011119,0.7709215177324756,0.8148974589069135,0.767060807950066,0.6063418481858434,0.9111024602665643,0.9660098883739465,0.9746381098020678,1.0611776449794452,0.9132606409057729,0.8971700762357925,1.1526492181176884,1.1264446869624014,1.1611875654125925,0.562241205748034,1.4313692166965513,1.3790846790596025,1.1398822629633307,1.0628505804278603,1.0244392727741476,0.9892884650234157,1.1168861494067013,0.8774994307907054,1.3948378095348326,1.498007413244846,1.105625204418868,1.5449020781497107,1.451820809874172,1.2147736316058906,0.9428042597914248,1.5645213096577877,1.0616221661758907,1.1667087014249073,1.4460406587456398,1.384738502242068,1.241895890086143,1.2400623712435561,1.0142480328697348,1.5926990400142704,1.2556150935329973,1.0999712486574689,0.8531139275597692,1.1848385684610863,0.9660951093333222,1.6028066672951653,1.3746241438170308,1.0884809279285372,1.209786641395958,1.42177260109215,1.3010983983501312,1.4180488297448184,1.4906643027485045,1.0752354949208243,1.2110909890850505,1.0714840317932188,1.2421428225448166,0.7514696015136025,1.214364868455728,1.1080400012324068,1.1875178720825517,1.1996216300075904,0.9354474225194988,1.1689209203015232,1.2082498128740107,1.2078825983456314,0.9461504838887745,0.8144010551536758,1.0733481142079055,1.0342361471016017,1.2435712465916953,0.7462519024972121,1.2398730876096844,1.0706752633495353,1.0752487589084,0.6642565500224671,0.9222674455769274,0.6589007114616333,0.8474387910659806,0.686711869360558,1.0559421457894946,0.8783557807588294,0.7280904539103591,1.1336551544570785,0.8744165913145153,0.8872363597404771,0.87661330437739,0.7977990224535189,0.4435898863046767,0.6523239973139893,0.906856364623756,0.8245782058600688,0.603278005339885,0.37312560172104486,0.5865924921766998,0.5571717820152687,0.34788328016105174,0.48245589414336304,0.3022605832439018,0.38066436496676703,0.49643855392039604,0.7295180916446518,0.6721622303079241,0.4274993386702953,0.10417786314259894,0.37780095073778086,0.018652400022651644,0.23742526697251592,-0.21455091673605498,0.2597690184532221,-0.053755575864214034,-0.08961655450735428,0.35510490825538993,0.22245425456385354,0.14683813894446693,0.045030006238213585,0.020553336826702018,-0.21366807723589787,-0.12249159224764235,-0.32115760767711554,-0.0328021421165338,-0.11394655058145456,0.034542077746346725,-0.03858270650297903,-0.3951331217989406,-0.45939761576169347,-0.34065648690001327,-0.4370150707935446,-0.4696630240995666,-0.4788602515829663,0.14526516329015438,-0.35338557674925153,-0.3285933460952422,-0.49132121137857937,-0.23067006062427536,-0.54721612511959,-0.6574349225835303,-0.46866241500610045,-1.2092412498524856,-0.7874644338801766
0.37450218858211,0.7834920872187983,0.622554841336703,0.6776591883743989,0.601201676953469,0.8560891125081962,0.7819701209405797,0.6864293814926292,0.9346869710669989,0.9732509377915683,0.5282265679817608,0.5409447864390357,0.22065211331726708,0.7417579226841298,0.9897568070480105,1.0444052179813135,1.2208392025213697,0.8704207823870226,1.1524111382909745,1.2568165372837612,1.0101558909157635,1.263991034118038,1.1696607847367626,1.0924568125136,1.1592700183576774,1.0492589318049728,1.06842153725077,1.3225480595186585,0.9675721333654823,1.0624803890649415,0.8292384792160407,1.007674023462594,0.9201016036012463,0.863723539322332,1.2349878634810427,1.1170706267300994,1.379591291516955,1.40914553438244,1.299318256615301,1.1191563846471637,0.9626835247238615,1.6214778879117264,0.8957643746295215,1.2183612572312874,1.5349974429619617,1.3959990131012412,1.6166482397573811,1.2696899468607683,1.2065905066895228,1.5806849885518046,1.0808735032303851,1.3541408191959392,1.29962188953866,1.4634976461875902,1.1077182328733062,1.4776454195281759,0.8777936720195616,1.317066796347929,1.2416176152850715,0.8507023315324542,1.6535768266693451,1.4380416489895362,1.2779277088165322,1.3126806650297111,0.9274473890724293,0.9276497867590737,1.1366791750727303,0.9398128585194229,1.4031152727267844,1.1920116205598386,1.2793969742814677,1.2613166274006782,1.156228526267058,1.0995648183510511,1.1542272947272771,1.0011324649349487,0.9770184344408929,1.0320271188478802,0.6548343318109404,0.7974697527666266,1.5470593318662063,1.0584654418446404,1.190274649339101,0.9835938307774298,0.9545861112405228,1.1411354437380308,1.0042055957020555,0.8500868209069697,0.670539965296398,0.802745501945847,1.0245077840348478,0.8748469294284356,0.6333737946741885,0.5728742826235386,0.8262800664547967,0.760228150878747,0.769621626194689,0.604784857394726,0.6948525049164928,0.2850408505992628,0.7935952044731699,0.47195015038836,0.6558931631344415,0.5869628886875382,0.23873036460185781,0.5236972093451702,0.42878871858759987,0.4338580333905472,0.44237751560218547,0.3570705225836438,0.48066131545481566,0.6251726293564903,0.5144704616508284,0.08373740606819041,0.11281727880047507,0.20032242454388907,0.0713166582176481,0.2523522089904643,0.056500944059400086,-0.1384564023879127,0.36163628831482864,0.23317300644144784,0.13835771693548188,0.215338872189818,0.02973369269762095,-0.35152477996518394,-0.11177350565545104,-0.18891716006082848,-0.08291852104839859,-0.42903057564096375,0.002423963574994435,0.09629768548957651,-0.23877236164091456,-0.04911799000307682,-0.5106399193033542,-0.03186296523895371,-0.47269108591100917,-0.4975901348039552,-0.6177363722412733,-0.544035930188867,-0.10218632865754393,-0.16280808917451767,-0.1379819342335079,-0.29553653245622546,-0.3760868004537877,-0.4028291914548299,-0.8089554924937203,-0.686662415643734,-0.5168847024882055,-0.7712761354524528
0.46600016271975264,0.5371995147311638,0.5355842921693768,0.7717413697771437,0.5256433317360173,0.7431197697820533,0.6325382931886359,1.0888334924367633,0.9312435115765937,1.1882319642797097,0.6732033360964822,0.4051296555831264,0.8993365369639759,0.7947729697676901,0.8082455640546654,0.7056472769045448,1.1527932725144605,0.8109217510453367,1.038652751303531,1.1913128572626928,0.9339965111532811,1.0847699921545657,1.1187363415935514,1.1071811420164916,1.3028854365568254,0.8803773082243203,1.4578970994872995,1.2222364867696032,1.1359759683968707,0.9801674540881044,0.9854816697094237,1.025560876452592,1.169407164751775,0.7461299971622176,1.2194357987464932,1.3603530293295782,1.1569683027712407,0.9965354912924573,1.3912313232879352,0.9168199958055486,1.0763715879737608,1.5076625638055565,1.2096227565951339,1.1289393846009554,1.6747857951032046,1.4734940640801555,1.623751662920349,1.1298784827762145,1.400419057620604,1.161933779304154,1.2174329089077391,1.6186509133246285,1.2451529140716318,0.9592878946081337,1.1534159779534983,1.1981066288405564,1.136008459090807,1.3012664135833547,1.204509314193343,1.2383267702534875,1.6671218812235922,1.561576128498162,1.4781669858255513,1.2784363524914797,1.2403458207320486,1.0843809469348362,1.0671643512379285,0.907495605716854,1.2572325799270958,1.1350779982798382,1.2308461154527257,1.0822709959427088,1.040521850153229,1.3318740232098374,1.174074691698775,1.193118813155079,0.990517291647696,0.824987888696328,1.0470428008273467,0.6667955220407003,1.487935219316229,1.0163557605641924,0.9553919654547054,1.0708956463572599,0.8364228317750667,0.7988782316470816,0.9684894552309926,0.696921343414949,0.9591487370017334,0.5346370914703326,0.9847622143360746,0.6787172584960208,0.8468168827924514,1.0674817273766901,0.8656589527446729,0.665188837707894,0.8073436561426488,0.4951318629463299,0.43647667215356933,0.16407067150579582,0.6654177208885442,0.8474926344855918,0.5544746938119699,0.6730346083020639,0.47652937946913865,0.47713335352036235,0.3323812043714005,0.5246926713995023,0.18449557857458865,0.18385886524554124,0.5612169838987978,0.46663339176467744,0.37326858192740886,0.4383563762132058,0.35850056382706647,0.3838454179576592,0.2841289766745553,0.22316625616707136,-0.02847925292677249,-0.09609699543927619,0.34394085502436833,0.5525692008410292,0.2035142049010815,0.18683783084145938,0.2676228584798456,-0.10094625377105865,-0.23779370071844,-0.3665764379317378,-0.31663822135637243,-0.21183836783693122,0.23392901903518173,0.2773460037951241,-0.09541326842651383,-0.16942595382687167,-0.30904214875779124,-0.14854675946684115,-0.1997677310084942,-0.5456676605692556,-0.3726356823699756,-0.4871288821382765,-0.14006147596762647,-0.24587385092073588,-0.42577855836315465,-0.2692943192507653,-0.2764652785469971,-0.47523685281913985,-0.7253106494545387,-0.6055492025155931,-0.7265941416751227,-0.8379710017783606
0.6158510041041446,0.5293426250308034,0.6627342356950404,0.7507977618482143,0.8273020520279344,0.8229030105169215,0.9537929074951741,0.7487674273982857,0.8996069856291105,0.9514287107507019,0.6803122307540681,0.6683413751805233,0.9117412107584487,0.5873114611029795,1.0723326316310249,0.7190249508253119,1.1548859721311477,1.3101598410860986,1.331554471966921,1.2183057074825612,1.081675980210235,0.8822994497363488,0.5494482435541389,1.0493174659817506,1.1673098167854223,0.6752594165638663,1.2289201843979274,1.319342168611904,1.456378376135088,1.2140943428680422,0.4931381308293431,1.0863223487526874,0.8360030177222179,1.0913458153532576,1.4154763079475492,0.8908739092603655,1.2081644347178253,1.3526471710298908,1.042853967516496,0.578320640744441,0.9345519984923241,0.939908100985729,1.0041245966089678,1.1501861625082654,1.350349061629647,1.447784780020423,1.586451684920407,1.606977689468971,1.061236527984698,1.005061713048268,1.3829365392758297,1.3151645931233649,1.3106493224080336,1.3587060734420933,1.0020341417881702,1.0668056676145174,0.9657030255252528,1.2990437594253705,0.9157198887887804,1.2995525734419258,1.437483872773563,1.5141939950615706,1.511625963794414,0.8939300132581649,1.1222322767201303,1.3147865176906441,0.8655124986835017,0.78314848357724,1.3271948024164946,1.393908066049557,1.2145496882285844,1.1413556967235319,1.1142062383701579,1.2074940012560358,1.3459162785040855,0.7751757075356427,1.163205128420863,0.9882955187023068,0.6464862340390791,0.821196502828231,1.26849294580142,0.754477198006634,0.9454847430683552,0.9926505957522554,0.7933677123049131,0.8254472209076107,0.9169037422209662,0.7873334214572496,0.81712642662728,0.4423441434896005,1.1203930827763793,0.7632470937090738,0.6051619122130909,0.8100387166600926,0.4724022225157676,0.7374224883634367,0.8160040732196758,0.5214520087618362,0.21556612758438787,0.41318696307341995,0.7593021705121185,0.8156224138164572,0.9091149327620323,0.6000992919510943,0.4813718944956452,0.2227298939998792,0.3788125154254849,0.5682282111259495,0.5913443860552929,0.25218695639096006,0.7112126751634493,0.44536010947759963,0.5960227381688625,0.25652294989269414,0.25482298335806813,0.19440904099828749,0.24027852056726423,-0.002438657966473745,-0.092803189928567,-0.09141826776504483,0.35604347986672485,0.25312940341433543,0.36365407103568403,0.2079602851170702,-0.14414933298559274,-0.4342688740581973,0.020969987288387087,-0.5785128308337156,0.04287776838472307,-0.4457531106149971,0.08350137913686939,0.05957197322739132,-0.2921611544740984,-0.3631975652256004,-0.3016669971852274,-0.3092439637678035,-0.23130332740846216,-0.7380336898329981,-0.40560466772412185,-0.6599295008041812,-0.2563542497072986,-0.33211404773590797,-0.6156806854653782,-0.22218543737316251,-0.43790910166600994,-0.5116152987968202,-0.30417251213502666,-0.7447529964662739,-0.8213883236983426,-0.665416088732794
0.7350271737409924,0.38991061253570936,0.792661340893535,0.8705032068530671,0.2911502912771087,0.8408257704257385,0.7299366784229285,0.7061515519396439,1.0483996160765565,0.9244333651692344,0.5336395501415262,0.4985298115662423,0.7920830860630069,0.634293833641806,0.9660388234097794,0.9870314149045205,1.164366021163656,1.3152464123130545,1.2012933306793856,1.1639104012208363,0.9599146428697325,0.7772223443181787,0.928178335063645,0.8368453102682625,1.1809450215365327,0.9936157926261507,1.2505640041455193,1.5743222779789243,1.2900498313787947,1.059735131743479,0.7466257965379064,1.0501524071865274,0.5566829270535802,1.308706846395102,1.5114238396153148,1.1112074995874186,0.98710907768003,1.1432209346329896,1.2828859042239622,1.2284269889357247,1.0664342068435007,1.2740187709203983,0.9263354535973958,1.6386178526922173,1.5276603806699256,1.395275360585244,1.2770047408881307,1.1145659746066765,1.1106135777391353,1.521562013353008,1.4972313168591918,1.475049462226393,1.3765360080024474,1.4839334337769263,1.2164136637834397,1.2444298847575048,0.9720981083078051,1.0896121332871869,0.9221728673075775,1.2395369212604703,1.2450068205663192,1.5139302546528461,1.4277230579907974,1.1982191512429297,1.1689074592542175,0.9654413715742707,1.1691568947540079,1.106850443095203,1.3808416977814293,0.9462142485735495,1.2140566759241387,1.1418429200981397,1.208634349569765,1.198698671083435,1.1052506819441261,1.1751965297881217,0.9531732409666165,0.797591014223235,0.727217577944746,0.5142229442442718,1.5203564718469513,0.8225610922635936,0.9349129032519715,1.224647176481298,0.9893614726301262,0.9082976677942723,0.9448651296340013,0.5676399160556314,0.6608323458808522,0.6133584639403193,1.1872114015260966,0.9593006048626488,0.7049788187479353,0.823048390600259,0.7121049558007263,0.9733233670244594,0.702471290094698,0.6706033897357834,0.31191802984345474,0.4539305431057998,0.7772495796338976,0.6488074544909326,0.8013749744858136,0.6116409928082704,0.4395811656652089,0.38632236553249566,0.5849838880405367,0.5178743848355539,0.4277808789569576,0.18488101958662084,0.7308347787063206,0.5139044510140598,0.6189707678195124,0.3755670135192274,0.3767680894428129,0.16168650832118453,0.05316537343268837,0.14752362692450488,-0.0679251441194806,-0.16131941915220094,0.37929200213439873,0.0878665780044722,0.4161192881404293,-0.15775918337111544,-0.08112889331513701,-0.20493330215638952,-0.018425420718494512,-0.39772052358542925,-0.3698676491969469,-0.512402173073551,0.030244572029435902,-0.35309433705342247,-0.21237278509112806,-0.14683602070996574,-0.3355390918238619,-0.47406708473648534,-0.6041932952393787,-0.48088835617561393,-0.2202343417000756,-0.7161611544279012,-0.40353225912280133,-0.37364608513786046,-0.4713264937271806,-0.40369902753565623,-0.224991299254507,-0.7625141217963172,-0.7542415400514393,-0.395923079511882,-0.934976512918159,-0.7415346802397385
0.33485443354183964,0.6468308704809143,0.6928667458738599,1.0564847633283574,0.503375912804473,1.043052627805878,1.1204590632712064,0.757410723896015,1.0529751242439622,1.1395546192364863,0.4888998439266273,0.6594304619379384,0.9518911053596404,0.6449211077800159,0.948675602411996,0.9938303177686748,1.410900583990927,0.8916086066741068,1.1656211514558492,1.3189474123571763,0.9420852656790858,0.7641393321112699,1.021808939907865,0.984035395952997,1.5337947592276877,0.9402644849565104,1.3704232661752032,1.506736804401666,1.064950884346709,0.8810109545283686,0.9999621176267285,1.0376826980600253,0.9407613314782107,1.328036027787252,1.228481645537581,1.4695509496074206,1.1176548736351308,1.6461840145923121,1.23110362902343,0.7799465957093307,1.090917382941759,1.716853936694043,1.0794645309049662,1.2823974632390436,1.638352879813645,1.3709272079098567,1.3979805040504956,1.3240858881979203,0.9280437049081847,1.3375312765877745,1.0776061259157974,1.4111768516332361,1.2586117986643293,1.1012136657477003,1.178036754438999,1.4242084860993167,1.212535615900437,1.3419247678843589,1.1931196587674313,0.9270202548114816,1.6645475865679555,1.6447482620008316,1.4278657282727008,1.2666773903678739,0.9855274173523125,0.9242024323520188,1.0287518747979891,0.9250036798786646,1.3938318523293616,1.1521533482820396,1.3232460042563776,0.8744779583098891,1.2253490251279644,1.330813315216237,1.0700041041654154,1.0430411450006707,0.8737738787694024,0.8798131969504681,0.9449293370815728,0.7621450002474331,1.312823920078682,0.8717799320924775,0.9939548854788216,1.195719608566785,0.694420276627452,0.8230836178337122,0.6697085750331754,0.7424465226531893,0.6460742976606181,0.4302069369501317,0.6671971628418607,0.8830578670408591,0.7531418964532753,0.8879670051771585,0.5144142201497544,0.7039771990984953,0.6642187527034369,0.5420658499194903,0.4094588881575751,0.3385004337189167,0.9056083562656863,0.6266674790353284,0.48530972750459395,0.5837735699148453,0.4188087096491434,0.526378716207384,0.548369189067531,0.35554774261785665,0.20171742967779252,0.4864012543994117,0.5191350474289924,0.4886991549028723,0.5638572317709125,0.21877622435562766,0.47048375535063924,0.18115977576129746,-0.04424116497549463,0.09104708347446269,-0.2697662847764989,-0.2813781273078695,0.36665302453027176,0.34751403556291693,0.15031174219580226,-0.2271797953490442,-0.10822887510841106,-0.2310720698991343,-0.1625032938989506,-0.4482610006355072,-0.26115027876855584,-0.5019134307651371,-0.0672626096920758,-0.27919219083418023,-0.07550184813763468,-0.22966648603660603,-0.26346741480215224,-0.5600725101777588,-0.4154750920980477,-0.6441055621105665,-0.2894327832470198,-0.6507751936028713,-0.010580830966151977,-0.18775112006269842,-0.19143083540230527,-0.48144201523397967,-0.5418960033900795,-0.77799224156417,-0.6502256590866999,-0.5527453296158145,-1.1152012174736372,-0.7744924123315632
0.7634471406488602,0.4494401189347046,0.5820297925170231,0.6649791714349034,1.0541114637986038,1.110314962186988,0.8099462847973518,0.6859316442426663,1.2658265195095066,0.842477236940395,0.960393444239642,0.5809358099852915,0.9113210050404633,0.8838348871998187,0.727779264393791,1.2664133862792686,0.9971686652889786,0.9258994486858355,1.296333302867779,1.388762779638663,1.0560878535997202,1.0012536049075274,1.0998012408023232,1.0669665039172427,1.364461894567415,0.6563297742041034,1.2986682738364757,1.5449951685365868,0.9690663447992978,1.1583661284434996,1.1131966654438357,0.8458645184842798,1.0993718521021718,1.1093826586527675,1.4293786881948316,1.1743974822467165,0.9859539188538993,1.5463941323033614,1.3214860632235161,1.0684700295308753,0.9973022610998473,1.6672300099085064,1.1143332685477203,1.3534236391239354,1.3578261345652531,1.4718864722085503,1.208234067865756,1.3936204740287645,0.9714370646008508,1.3457439483503106,1.2249808604420145,1.6107498576815873,1.3939964317303484,1.134678837892433,1.0751773665465816,1.4128127969064266,1.1480439145946646,1.1180947023390118,1.321695328288056,1.3334844886600405,1.722772192117309,1.6894041597003966,1.3329764746254924,0.9374246465019053,0.9450299967597627,1.1879990043448498,1.2512192897323975,0.9933642914734998,1.4650040679508043,1.457958414493694,1.3381137769109435,1.1713301756134078,1.1431887795483366,0.971346113461947,1.130132218806559,0.9255388846870065,0.8265147104432801,0.9500197492410336,0.7792572474603244,0.6424910774222936,0.7268890615050856,0.9186624462039376,0.8992827677117635,0.894379184512536,1.0365080681318875,0.944417837901009,1.1135036038172155,0.6039811494494177,0.738621071282283,0.5278458737003362,0.7247846967586766,1.0058569489210953,0.3572136106556746,0.800426486430297,0.4638626925774607,0.8391427277905698,0.7099368166562011,0.553147368793748,0.5744648628053436,0.46504525743123115,0.7511331284390533,0.39479149684272685,0.3766471865716332,0.6272770091127926,0.49210168800815457,0.4775789080985936,0.3549472640187715,0.14546783371574593,-0.0005652292864916919,0.16333834521388935,0.6009809597236561,0.6097436106990005,0.5813833899139093,0.3307018507133369,0.11808588955381129,0.19644297879654102,0.04535222220172958,0.09568324923152938,0.1566718057142409,0.005436411724533435,0.43279192702445624,0.3620340645828975,0.17647111706038757,-0.029199085562334425,-0.014301106930211506,-0.11482829780607297,-0.19664204055367654,-0.21027856540855389,-0.2083703734534376,-0.7388026228019402,0.25462902187246594,-0.2733672284198795,-0.24181197899059886,-0.1998965714046795,-0.08824220918622003,-0.47562527463695403,-0.1347543727029723,-0.5644018480635861,-0.44471830593112854,-0.7172270425341872,-0.4514026925177048,-0.4174740195794399,-0.4367673021462508,-0.22512131946495845,-0.5323412937809915,-0.6405384739170841,-0.5856076051714545,-0.7781162139493694,-1.0055442743055032,-0.6577710610172659
